# TOPAS Version: 3.7
# Parameter File: 15MV_agua_pulmao_agua_2x2.txt
# Results for scorer Dose
# Scored in component: Dosimetro
# X in 15 bins of 1 cm
# Y in 15 bins of 1 cm
# Z in 130 bins of 0.1 cm
# DoseToMaterial ( Gy ) : Sum   
0, 0, 0, 9.288368119086954e-08
0, 0, 1, 7.522250911051742e-08
0, 0, 2, 6.580125955224503e-08
0, 0, 3, 5.913097567145087e-08
0, 0, 4, 5.702284155972848e-08
0, 0, 5, 6.11121251381519e-08
0, 0, 6, 5.435853722701722e-08
0, 0, 7, 5.704509931092616e-08
0, 0, 8, 3.793599390178315e-08
0, 0, 9, 4.250201968147849e-08
0, 0, 10, 3.777126877935189e-08
0, 0, 11, 3.355776101443553e-08
0, 0, 12, 3.463576803142132e-08
0, 0, 13, 3.927324243591102e-08
0, 0, 14, 3.498055889394891e-08
0, 0, 15, 3.705163820200141e-08
0, 0, 16, 3.594751873947644e-08
0, 0, 17, 3.274898929817027e-08
0, 0, 18, 3.415601312894978e-08
0, 0, 19, 2.930359066510846e-08
0, 0, 20, 2.946604205078529e-08
0, 0, 21, 3.16415835754924e-08
0, 0, 22, 2.777382590579691e-08
0, 0, 23, 3.083712840634689e-08
0, 0, 24, 2.643946572788991e-08
0, 0, 25, 2.59484362885587e-08
0, 0, 26, 3.400367987183017e-08
0, 0, 27, 2.912932650644962e-08
0, 0, 28, 3.172058526956789e-08
0, 0, 29, 2.653612440894904e-08
0, 0, 30, 3.106483248416225e-08
0, 0, 31, 3.259440006786463e-08
0, 0, 32, 2.892855555103324e-08
0, 0, 33, 2.944877586230632e-08
0, 0, 34, 3.000981863010566e-08
0, 0, 35, 2.777611918247658e-08
0, 0, 36, 2.646318719712326e-08
0, 0, 37, 2.574140545164028e-08
0, 0, 38, 2.774080343215246e-08
0, 0, 39, 3.06186294096733e-08
0, 0, 40, 2.891657224779465e-08
0, 0, 41, 3.187637176438329e-08
0, 0, 42, 2.866405246493287e-08
0, 0, 43, 3.899017286812523e-08
0, 0, 44, 3.195296471858455e-08
0, 0, 45, 3.136470994036245e-08
0, 0, 46, 3.346136168147495e-08
0, 0, 47, 3.372988643945973e-08
0, 0, 48, 3.9050323863421e-08
0, 0, 49, 3.624270661362061e-08
0, 0, 50, 3.483989630126416e-08
0, 0, 51, 3.509094170794924e-08
0, 0, 52, 3.798568215529485e-08
0, 0, 53, 3.783369706411577e-08
0, 0, 54, 3.734505682473355e-08
0, 0, 55, 4.965649225141533e-08
0, 0, 56, 3.682243132629992e-08
0, 0, 57, 4.228329331112946e-08
0, 0, 58, 3.989248043012594e-08
0, 0, 59, 5.387783374999344e-08
0, 0, 60, 3.832282757798566e-08
0, 0, 61, 4.775008832780259e-08
0, 0, 62, 5.084038079417041e-08
0, 0, 63, 5.005243153277661e-08
0, 0, 64, 3.405961024327553e-08
0, 0, 65, 4.243290874228478e-08
0, 0, 66, 3.908276369202213e-08
0, 0, 67, 3.812877125142222e-08
0, 0, 68, 4.389439212104662e-08
0, 0, 69, 4.431524658343733e-08
0, 0, 70, 4.975485978775396e-08
0, 0, 71, 4.089279315167005e-08
0, 0, 72, 5.041490069856991e-08
0, 0, 73, 4.308325074475761e-08
0, 0, 74, 4.620276783384725e-08
0, 0, 75, 6.164873411762528e-08
0, 0, 76, 5.321590634821405e-08
0, 0, 77, 5.326845808895087e-08
0, 0, 78, 4.952142873548837e-08
0, 0, 79, 5.3395766030917e-08
0, 0, 80, 5.059702701259994e-08
0, 0, 81, 4.942619824532812e-08
0, 0, 82, 5.578963779839796e-08
0, 0, 83, 4.452411062061401e-08
0, 0, 84, 4.876806158904401e-08
0, 0, 85, 4.933762554060195e-08
0, 0, 86, 5.085991006126278e-08
0, 0, 87, 5.236294597921187e-08
0, 0, 88, 5.916036016628823e-08
0, 0, 89, 4.81775117577854e-08
0, 0, 90, 5.120415735859751e-08
0, 0, 91, 4.859944979784814e-08
0, 0, 92, 5.186633345033442e-08
0, 0, 93, 5.572726635705294e-08
0, 0, 94, 5.217593468387349e-08
0, 0, 95, 5.85315191869995e-08
0, 0, 96, 4.722068069895613e-08
0, 0, 97, 6.988582157418932e-08
0, 0, 98, 5.952690429467111e-08
0, 0, 99, 4.694377864211674e-08
0, 0, 100, 5.705820882440094e-08
0, 0, 101, 5.412282533256985e-08
0, 0, 102, 5.683698844904939e-08
0, 0, 103, 5.95132654268582e-08
0, 0, 104, 5.479009956843583e-08
0, 0, 105, 5.653729218124681e-08
0, 0, 106, 6.708893351969891e-08
0, 0, 107, 5.88469148965487e-08
0, 0, 108, 5.040719841531427e-08
0, 0, 109, 5.393406965481518e-08
0, 0, 110, 5.516668366567501e-08
0, 0, 111, 5.431826721746802e-08
0, 0, 112, 5.988746920593258e-08
0, 0, 113, 5.672653813348916e-08
0, 0, 114, 6.491810466968673e-08
0, 0, 115, 6.17948643366617e-08
0, 0, 116, 6.789574058529979e-08
0, 0, 117, 6.431073273915899e-08
0, 0, 118, 7.344927865915452e-08
0, 0, 119, 6.72496653919552e-08
0, 0, 120, 6.388639661736306e-08
0, 0, 121, 6.644788896892351e-08
0, 0, 122, 6.403183050451844e-08
0, 0, 123, 6.197742408176055e-08
0, 0, 124, 5.86825308346306e-08
0, 0, 125, 6.301525701246646e-08
0, 0, 126, 6.483211478780504e-08
0, 0, 127, 6.785914052898079e-08
0, 0, 128, 6.31134895456853e-08
0, 0, 129, 6.740692271023363e-08
0, 1, 0, 1.052170404136632e-07
0, 1, 1, 9.697554759213745e-08
0, 1, 2, 7.994422190904515e-08
0, 1, 3, 7.606150376204823e-08
0, 1, 4, 6.121461382235793e-08
0, 1, 5, 6.745575831246242e-08
0, 1, 6, 6.150921905145879e-08
0, 1, 7, 5.761392074532523e-08
0, 1, 8, 5.771153865907763e-08
0, 1, 9, 5.297909666523992e-08
0, 1, 10, 4.151413435238283e-08
0, 1, 11, 4.461377400843958e-08
0, 1, 12, 4.341914916494716e-08
0, 1, 13, 4.011636534073659e-08
0, 1, 14, 4.0509902987651e-08
0, 1, 15, 4.305884360178425e-08
0, 1, 16, 3.900485978647339e-08
0, 1, 17, 3.805062220862965e-08
0, 1, 18, 3.946536963894687e-08
0, 1, 19, 3.16622141838252e-08
0, 1, 20, 3.298789863492857e-08
0, 1, 21, 4.082591331666663e-08
0, 1, 22, 3.470912091074752e-08
0, 1, 23, 4.338108894330617e-08
0, 1, 24, 3.334486464723341e-08
0, 1, 25, 3.530591285993978e-08
0, 1, 26, 3.669324044608402e-08
0, 1, 27, 3.637836698544561e-08
0, 1, 28, 3.638427514829345e-08
0, 1, 29, 3.22880602254827e-08
0, 1, 30, 3.287509997562665e-08
0, 1, 31, 3.541511262028507e-08
0, 1, 32, 3.422590566515282e-08
0, 1, 33, 3.699731365713887e-08
0, 1, 34, 3.817508797965274e-08
0, 1, 35, 3.231225775834901e-08
0, 1, 36, 3.292384676001348e-08
0, 1, 37, 3.924017377698874e-08
0, 1, 38, 3.850796659321531e-08
0, 1, 39, 3.932914793836062e-08
0, 1, 40, 3.950795601781465e-08
0, 1, 41, 4.271580777981399e-08
0, 1, 42, 3.668387194011302e-08
0, 1, 43, 3.906586698576575e-08
0, 1, 44, 4.192942171243885e-08
0, 1, 45, 3.817848792664336e-08
0, 1, 46, 4.483607796146316e-08
0, 1, 47, 3.600577613838141e-08
0, 1, 48, 4.309341505859265e-08
0, 1, 49, 5.035352046434127e-08
0, 1, 50, 4.410163256807209e-08
0, 1, 51, 4.959869315257492e-08
0, 1, 52, 4.346595972037903e-08
0, 1, 53, 5.068779174166593e-08
0, 1, 54, 4.953195897883234e-08
0, 1, 55, 4.708907042072497e-08
0, 1, 56, 4.594692626369579e-08
0, 1, 57, 5.206405262470071e-08
0, 1, 58, 4.725691482576622e-08
0, 1, 59, 5.051769136343864e-08
0, 1, 60, 5.099389710494506e-08
0, 1, 61, 5.39173576896701e-08
0, 1, 62, 5.583309103940337e-08
0, 1, 63, 5.536939795547369e-08
0, 1, 64, 5.229114208304964e-08
0, 1, 65, 4.799514030651153e-08
0, 1, 66, 5.105199818444817e-08
0, 1, 67, 5.712152528758452e-08
0, 1, 68, 5.307159511858117e-08
0, 1, 69, 4.767842298747382e-08
0, 1, 70, 5.737065578159672e-08
0, 1, 71, 5.77395979917128e-08
0, 1, 72, 5.55605090823974e-08
0, 1, 73, 5.706653638526404e-08
0, 1, 74, 5.81816195222018e-08
0, 1, 75, 7.275551894281307e-08
0, 1, 76, 7.873984486650443e-08
0, 1, 77, 6.692762610782665e-08
0, 1, 78, 6.404916064184363e-08
0, 1, 79, 5.793745927462624e-08
0, 1, 80, 6.081574355221164e-08
0, 1, 81, 6.1035152043587e-08
0, 1, 82, 6.907391991717304e-08
0, 1, 83, 7.165959914345876e-08
0, 1, 84, 6.020126619432631e-08
0, 1, 85, 6.537890584468187e-08
0, 1, 86, 6.525412743485504e-08
0, 1, 87, 6.990285328356549e-08
0, 1, 88, 6.719248801800859e-08
0, 1, 89, 5.811821779388993e-08
0, 1, 90, 5.973380012846974e-08
0, 1, 91, 6.224364312856778e-08
0, 1, 92, 6.746004999058641e-08
0, 1, 93, 6.174612821041592e-08
0, 1, 94, 6.813666431071397e-08
0, 1, 95, 6.945497688093383e-08
0, 1, 96, 7.240247867912331e-08
0, 1, 97, 6.788506112798132e-08
0, 1, 98, 6.963824716876843e-08
0, 1, 99, 6.885628778263708e-08
0, 1, 100, 7.242805111218331e-08
0, 1, 101, 6.379147521329287e-08
0, 1, 102, 6.863988488703399e-08
0, 1, 103, 7.26793629723943e-08
0, 1, 104, 7.169897742187459e-08
0, 1, 105, 7.225825982004608e-08
0, 1, 106, 5.99636322817787e-08
0, 1, 107, 7.047853500807832e-08
0, 1, 108, 7.981321203942571e-08
0, 1, 109, 8.117971361798482e-08
0, 1, 110, 6.971306021341661e-08
0, 1, 111, 7.063189144673743e-08
0, 1, 112, 6.77780604974032e-08
0, 1, 113, 7.734102780432295e-08
0, 1, 114, 7.917799393908354e-08
0, 1, 115, 7.189737516455352e-08
0, 1, 116, 8.184221655938018e-08
0, 1, 117, 8.09924571854026e-08
0, 1, 118, 6.733534263503316e-08
0, 1, 119, 6.537988639365722e-08
0, 1, 120, 8.080261437726222e-08
0, 1, 121, 7.107738042577694e-08
0, 1, 122, 7.291127701591904e-08
0, 1, 123, 7.242390864803383e-08
0, 1, 124, 7.599550855275083e-08
0, 1, 125, 7.633627774339402e-08
0, 1, 126, 8.159634745652511e-08
0, 1, 127, 8.594033573672277e-08
0, 1, 128, 7.936522905538368e-08
0, 1, 129, 8.297701015180792e-08
0, 2, 0, 1.142332237691335e-07
0, 2, 1, 1.063642471876847e-07
0, 2, 2, 9.556803348687026e-08
0, 2, 3, 8.802309281463749e-08
0, 2, 4, 8.063108936084973e-08
0, 2, 5, 8.007699392464929e-08
0, 2, 6, 6.4628707718839e-08
0, 2, 7, 7.318379147136511e-08
0, 2, 8, 7.25964426351311e-08
0, 2, 9, 6.093792848105295e-08
0, 2, 10, 6.06228098831707e-08
0, 2, 11, 5.032342187405447e-08
0, 2, 12, 5.011269266219642e-08
0, 2, 13, 4.842276979388771e-08
0, 2, 14, 4.2923208098955e-08
0, 2, 15, 5.033024308431777e-08
0, 2, 16, 4.495267447168771e-08
0, 2, 17, 4.549418264332417e-08
0, 2, 18, 3.849335072914073e-08
0, 2, 19, 3.975941709200015e-08
0, 2, 20, 3.729283193365518e-08
0, 2, 21, 3.966946238165292e-08
0, 2, 22, 4.516476082017107e-08
0, 2, 23, 4.462741998167985e-08
0, 2, 24, 3.227818012874195e-08
0, 2, 25, 4.417751142682391e-08
0, 2, 26, 4.006998466365985e-08
0, 2, 27, 4.020676058757999e-08
0, 2, 28, 4.147470988868918e-08
0, 2, 29, 4.111393181460699e-08
0, 2, 30, 4.276260057167747e-08
0, 2, 31, 4.106821904770186e-08
0, 2, 32, 3.849677554512709e-08
0, 2, 33, 3.668341008733478e-08
0, 2, 34, 3.744534993188608e-08
0, 2, 35, 4.164815337048822e-08
0, 2, 36, 4.080334647937889e-08
0, 2, 37, 4.055844371464445e-08
0, 2, 38, 4.039370793407215e-08
0, 2, 39, 4.32359215096767e-08
0, 2, 40, 4.306570389189801e-08
0, 2, 41, 5.336135799893782e-08
0, 2, 42, 4.826110711064757e-08
0, 2, 43, 4.707323242314487e-08
0, 2, 44, 4.718622648169912e-08
0, 2, 45, 4.793546537484872e-08
0, 2, 46, 5.613732412257377e-08
0, 2, 47, 5.03660508854864e-08
0, 2, 48, 4.860829605490835e-08
0, 2, 49, 5.095486699246976e-08
0, 2, 50, 5.074615216926759e-08
0, 2, 51, 4.831061062304798e-08
0, 2, 52, 5.005041003869337e-08
0, 2, 53, 4.186540891737422e-08
0, 2, 54, 5.960130522453255e-08
0, 2, 55, 4.612427417782783e-08
0, 2, 56, 4.77621853178789e-08
0, 2, 57, 4.949834320200353e-08
0, 2, 58, 6.285342379896974e-08
0, 2, 59, 6.62302142018234e-08
0, 2, 60, 5.391619950501081e-08
0, 2, 61, 5.435030558942344e-08
0, 2, 62, 6.564319221524784e-08
0, 2, 63, 6.363577398360576e-08
0, 2, 64, 6.969200683215604e-08
0, 2, 65, 5.707622463546613e-08
0, 2, 66, 6.43112514353561e-08
0, 2, 67, 5.393860291746932e-08
0, 2, 68, 4.986484825053594e-08
0, 2, 69, 6.151569920120892e-08
0, 2, 70, 7.710181648690195e-08
0, 2, 71, 5.888031040512942e-08
0, 2, 72, 7.72947998939344e-08
0, 2, 73, 7.092236131711616e-08
0, 2, 74, 6.877705516217247e-08
0, 2, 75, 6.665029417263213e-08
0, 2, 76, 7.875349439245838e-08
0, 2, 77, 6.326045109972256e-08
0, 2, 78, 8.071786794516811e-08
0, 2, 79, 8.602697931792136e-08
0, 2, 80, 7.17518489068425e-08
0, 2, 81, 7.642695720733172e-08
0, 2, 82, 7.55781783823295e-08
0, 2, 83, 7.65987522299838e-08
0, 2, 84, 7.229775178529962e-08
0, 2, 85, 7.103162147359399e-08
0, 2, 86, 8.473166701605805e-08
0, 2, 87, 8.694761532979101e-08
0, 2, 88, 8.687638342053106e-08
0, 2, 89, 8.794466310746429e-08
0, 2, 90, 8.018902519779658e-08
0, 2, 91, 7.471096097333429e-08
0, 2, 92, 8.246799865219145e-08
0, 2, 93, 7.717046202060374e-08
0, 2, 94, 7.527473400159579e-08
0, 2, 95, 8.104873927550216e-08
0, 2, 96, 8.322687250483796e-08
0, 2, 97, 8.422513531058939e-08
0, 2, 98, 8.414861696337539e-08
0, 2, 99, 7.892391806763044e-08
0, 2, 100, 8.566318854263955e-08
0, 2, 101, 8.232348136516521e-08
0, 2, 102, 6.811723807231829e-08
0, 2, 103, 8.293675790582711e-08
0, 2, 104, 8.504348159021902e-08
0, 2, 105, 8.328050427053313e-08
0, 2, 106, 8.963799302819098e-08
0, 2, 107, 8.80894717170122e-08
0, 2, 108, 9.195346706292185e-08
0, 2, 109, 8.479055679799785e-08
0, 2, 110, 8.238326643095206e-08
0, 2, 111, 8.90914790829811e-08
0, 2, 112, 9.148311619355809e-08
0, 2, 113, 7.915102173683408e-08
0, 2, 114, 7.853960681813987e-08
0, 2, 115, 8.966733133775051e-08
0, 2, 116, 8.327912581762575e-08
0, 2, 117, 9.563391500932994e-08
0, 2, 118, 9.893747687783616e-08
0, 2, 119, 8.7454829156286e-08
0, 2, 120, 9.248256560567825e-08
0, 2, 121, 9.73481135702059e-08
0, 2, 122, 1.003729224180461e-07
0, 2, 123, 8.928404326979944e-08
0, 2, 124, 9.361188091361328e-08
0, 2, 125, 9.412939050434943e-08
0, 2, 126, 9.753787111321799e-08
0, 2, 127, 9.356462271625787e-08
0, 2, 128, 9.578987913982928e-08
0, 2, 129, 1.06383168940738e-07
0, 3, 0, 1.231182551464371e-07
0, 3, 1, 1.187214451192631e-07
0, 3, 2, 1.152375901369851e-07
0, 3, 3, 1.119074823918709e-07
0, 3, 4, 9.268156020425522e-08
0, 3, 5, 8.303963738853781e-08
0, 3, 6, 7.760803555356688e-08
0, 3, 7, 7.641811095027151e-08
0, 3, 8, 6.857901269086142e-08
0, 3, 9, 6.782408235039838e-08
0, 3, 10, 6.345512559846611e-08
0, 3, 11, 6.408974684291024e-08
0, 3, 12, 5.36606172829579e-08
0, 3, 13, 5.605703279343288e-08
0, 3, 14, 4.787784746440593e-08
0, 3, 15, 4.999533942395828e-08
0, 3, 16, 4.771566963768237e-08
0, 3, 17, 4.893551164286691e-08
0, 3, 18, 4.915570528396529e-08
0, 3, 19, 5.590473861616374e-08
0, 3, 20, 4.49048656037121e-08
0, 3, 21, 4.921868779206306e-08
0, 3, 22, 4.963028032989314e-08
0, 3, 23, 4.576709855541594e-08
0, 3, 24, 3.996605357770022e-08
0, 3, 25, 4.636830297499728e-08
0, 3, 26, 4.528257235847377e-08
0, 3, 27, 3.946465909621111e-08
0, 3, 28, 5.370350564248838e-08
0, 3, 29, 4.911960260756132e-08
0, 3, 30, 4.113022100682429e-08
0, 3, 31, 4.734839365028165e-08
0, 3, 32, 5.099211719539198e-08
0, 3, 33, 4.296893862942852e-08
0, 3, 34, 4.095603500786638e-08
0, 3, 35, 4.542918574657051e-08
0, 3, 36, 4.591965918621099e-08
0, 3, 37, 4.463627334416742e-08
0, 3, 38, 4.851814239259511e-08
0, 3, 39, 4.803900921501736e-08
0, 3, 40, 5.276157821754168e-08
0, 3, 41, 4.920878993175393e-08
0, 3, 42, 5.425030380479257e-08
0, 3, 43, 5.112760348424672e-08
0, 3, 44, 5.600084307388897e-08
0, 3, 45, 5.2978144537974e-08
0, 3, 46, 6.167749688756885e-08
0, 3, 47, 5.934063906920528e-08
0, 3, 48, 6.175069700020686e-08
0, 3, 49, 5.946042946902708e-08
0, 3, 50, 7.160126358485286e-08
0, 3, 51, 6.280659192725579e-08
0, 3, 52, 6.612835079522483e-08
0, 3, 53, 6.248539108355544e-08
0, 3, 54, 6.413858244513904e-08
0, 3, 55, 7.05372613651889e-08
0, 3, 56, 7.711665261922462e-08
0, 3, 57, 6.393352691702603e-08
0, 3, 58, 7.019413317266299e-08
0, 3, 59, 7.511369659596312e-08
0, 3, 60, 6.739141156231199e-08
0, 3, 61, 6.885282033408657e-08
0, 3, 62, 9.314251769865223e-08
0, 3, 63, 8.593843858761829e-08
0, 3, 64, 7.828505488305382e-08
0, 3, 65, 7.108697985813706e-08
0, 3, 66, 8.168877485559278e-08
0, 3, 67, 8.035888754420739e-08
0, 3, 68, 7.961602932482492e-08
0, 3, 69, 8.88123992126566e-08
0, 3, 70, 9.365798092630939e-08
0, 3, 71, 7.210800134771489e-08
0, 3, 72, 8.142618668216528e-08
0, 3, 73, 8.753642788406069e-08
0, 3, 74, 8.392315464789135e-08
0, 3, 75, 8.440949983423707e-08
0, 3, 76, 8.26347203997102e-08
0, 3, 77, 8.822259189855686e-08
0, 3, 78, 8.816562768743097e-08
0, 3, 79, 9.518915788930826e-08
0, 3, 80, 8.789740491010889e-08
0, 3, 81, 8.770075510255992e-08
0, 3, 82, 8.32765536529223e-08
0, 3, 83, 9.006514289922052e-08
0, 3, 84, 9.339484563497535e-08
0, 3, 85, 8.791641192829047e-08
0, 3, 86, 8.75832313340652e-08
0, 3, 87, 8.24916028818734e-08
0, 3, 88, 9.56973025267871e-08
0, 3, 89, 1.034671655020247e-07
0, 3, 90, 9.591907002004518e-08
0, 3, 91, 8.470392742765398e-08
0, 3, 92, 9.014512158955768e-08
0, 3, 93, 9.49238980751943e-08
0, 3, 94, 1.009705101751024e-07
0, 3, 95, 1.003571696855943e-07
0, 3, 96, 9.805513201399663e-08
0, 3, 97, 9.912628229358234e-08
0, 3, 98, 9.732683281526988e-08
0, 3, 99, 9.003708356658535e-08
0, 3, 100, 9.108061505003207e-08
0, 3, 101, 9.251903065887745e-08
0, 3, 102, 1.065521146870196e-07
0, 3, 103, 1.050315816542025e-07
0, 3, 104, 1.013444119735141e-07
0, 3, 105, 1.001013245627291e-07
0, 3, 106, 1.041569035464818e-07
0, 3, 107, 1.097519870540964e-07
0, 3, 108, 1.165619494258863e-07
0, 3, 109, 1.052906881682247e-07
0, 3, 110, 9.986690230334716e-08
0, 3, 111, 1.016809960674436e-07
0, 3, 112, 9.953810575780153e-08
0, 3, 113, 9.921708254978512e-08
0, 3, 114, 9.698551650672016e-08
0, 3, 115, 1.084844996057654e-07
0, 3, 116, 1.120008832344865e-07
0, 3, 117, 1.191803065125896e-07
0, 3, 118, 1.22847367833856e-07
0, 3, 119, 1.137261094186215e-07
0, 3, 120, 1.131232210127564e-07
0, 3, 121, 1.13369438281552e-07
0, 3, 122, 1.160417824053184e-07
0, 3, 123, 1.082211014136192e-07
0, 3, 124, 1.224976102776054e-07
0, 3, 125, 1.049752640369661e-07
0, 3, 126, 1.065237569264355e-07
0, 3, 127, 1.078710809565564e-07
0, 3, 128, 1.105932767586637e-07
0, 3, 129, 1.159878308953921e-07
0, 4, 0, 1.381347090045892e-07
0, 4, 1, 1.22205577213208e-07
0, 4, 2, 1.102200428704236e-07
0, 4, 3, 1.048561344418886e-07
0, 4, 4, 1.106559679442398e-07
0, 4, 5, 9.607937556666002e-08
0, 4, 6, 9.665833289318471e-08
0, 4, 7, 9.530018729719814e-08
0, 4, 8, 8.743494106511207e-08
0, 4, 9, 7.350276121087518e-08
0, 4, 10, 6.956398834745414e-08
0, 4, 11, 6.238429506311149e-08
0, 4, 12, 5.401968294904691e-08
0, 4, 13, 5.252042356573838e-08
0, 4, 14, 5.582542428328452e-08
0, 4, 15, 5.724534801743175e-08
0, 4, 16, 5.630375099485718e-08
0, 4, 17, 5.76301140142732e-08
0, 4, 18, 5.72101299667338e-08
0, 4, 19, 5.332264052526625e-08
0, 4, 20, 5.888830045819304e-08
0, 4, 21, 5.401455283049472e-08
0, 4, 22, 4.983816737080815e-08
0, 4, 23, 5.280277903807473e-08
0, 4, 24, 5.92201097049383e-08
0, 4, 25, 5.763711286022044e-08
0, 4, 26, 5.950847636881917e-08
0, 4, 27, 5.223354193617524e-08
0, 4, 28, 5.169763284129658e-08
0, 4, 29, 4.601441716545196e-08
0, 4, 30, 4.724999413951991e-08
0, 4, 31, 4.809891862578297e-08
0, 4, 32, 5.040352490937039e-08
0, 4, 33, 4.802156894356813e-08
0, 4, 34, 6.157144838425666e-08
0, 4, 35, 5.635596167508083e-08
0, 4, 36, 5.477721032320915e-08
0, 4, 37, 5.497458133163491e-08
0, 4, 38, 5.961390314723758e-08
0, 4, 39, 6.003241281860028e-08
0, 4, 40, 5.814595382958032e-08
0, 4, 41, 5.810207426293346e-08
0, 4, 42, 6.609703007143253e-08
0, 4, 43, 6.306676425538171e-08
0, 4, 44, 5.567177296939008e-08
0, 4, 45, 6.78441907098204e-08
0, 4, 46, 5.035542116615943e-08
0, 4, 47, 6.096082216799914e-08
0, 4, 48, 6.763331583670151e-08
0, 4, 49, 7.250201150554858e-08
0, 4, 50, 6.49228510951616e-08
0, 4, 51, 7.157363057785915e-08
0, 4, 52, 7.069660767911046e-08
0, 4, 53, 7.84716291946097e-08
0, 4, 54, 7.439498261874178e-08
0, 4, 55, 7.164543092130771e-08
0, 4, 56, 8.551187846705943e-08
0, 4, 57, 9.499927244860373e-08
0, 4, 58, 8.629166359241935e-08
0, 4, 59, 9.34141937136701e-08
0, 4, 60, 7.170990556915058e-08
0, 4, 61, 8.000122875273519e-08
0, 4, 62, 7.684737113322626e-08
0, 4, 63, 8.312340327165657e-08
0, 4, 64, 8.277224594621657e-08
0, 4, 65, 7.38720302706497e-08
0, 4, 66, 9.085099605954383e-08
0, 4, 67, 1.015058757047882e-07
0, 4, 68, 1.035329901810655e-07
0, 4, 69, 9.727937566594846e-08
0, 4, 70, 1.009216674674462e-07
0, 4, 71, 1.105071802953717e-07
0, 4, 72, 9.548129042968867e-08
0, 4, 73, 1.071069846148021e-07
0, 4, 74, 9.820675472838047e-08
0, 4, 75, 1.010594843364743e-07
0, 4, 76, 9.375924037158256e-08
0, 4, 77, 9.954219137853215e-08
0, 4, 78, 1.129417483980433e-07
0, 4, 79, 1.040236057292532e-07
0, 4, 80, 1.048352089583204e-07
0, 4, 81, 1.036402039744644e-07
0, 4, 82, 1.064012948859272e-07
0, 4, 83, 1.129248303755048e-07
0, 4, 84, 1.161186276021908e-07
0, 4, 85, 1.251733579010761e-07
0, 4, 86, 1.172179651121041e-07
0, 4, 87, 1.188652518635536e-07
0, 4, 88, 1.090179395646373e-07
0, 4, 89, 1.060121448404061e-07
0, 4, 90, 1.009060710543963e-07
0, 4, 91, 1.161771976398995e-07
0, 4, 92, 1.201438664111265e-07
0, 4, 93, 1.218240157641048e-07
0, 4, 94, 1.193727712234249e-07
0, 4, 95, 1.177697939169775e-07
0, 4, 96, 1.229311408224021e-07
0, 4, 97, 1.099720279285066e-07
0, 4, 98, 1.147269230727943e-07
0, 4, 99, 1.029353597914451e-07
0, 4, 100, 1.165297121019648e-07
0, 4, 101, 1.183215019295858e-07
0, 4, 102, 1.141955436878561e-07
0, 4, 103, 1.167978496141586e-07
0, 4, 104, 1.165512841794225e-07
0, 4, 105, 1.221000189843835e-07
0, 4, 106, 1.113985774736648e-07
0, 4, 107, 1.204064261628446e-07
0, 4, 108, 1.135570926180662e-07
0, 4, 109, 1.17188456272288e-07
0, 4, 110, 1.28812075672613e-07
0, 4, 111, 1.121232884315759e-07
0, 4, 112, 1.151644752894754e-07
0, 4, 113, 1.32315463474697e-07
0, 4, 114, 1.377609777364341e-07
0, 4, 115, 1.118215209316986e-07
0, 4, 116, 1.205898172429443e-07
0, 4, 117, 1.477615114708897e-07
0, 4, 118, 1.355549272830103e-07
0, 4, 119, 1.223621950430243e-07
0, 4, 120, 1.161178460051815e-07
0, 4, 121, 1.369785991300887e-07
0, 4, 122, 1.239894089621885e-07
0, 4, 123, 1.332461891934145e-07
0, 4, 124, 1.192224914348117e-07
0, 4, 125, 1.385903800610322e-07
0, 4, 126, 1.302426539950829e-07
0, 4, 127, 1.378626137693573e-07
0, 4, 128, 1.288167084112501e-07
0, 4, 129, 1.419668080870906e-07
0, 5, 0, 1.396972919565087e-07
0, 5, 1, 1.328849208448446e-07
0, 5, 2, 1.275025738323166e-07
0, 5, 3, 1.17078656103331e-07
0, 5, 4, 1.122215564919316e-07
0, 5, 5, 1.092200747621064e-07
0, 5, 6, 9.377801291066135e-08
0, 5, 7, 8.750813407232272e-08
0, 5, 8, 8.506884086045829e-08
0, 5, 9, 8.218550107130795e-08
0, 5, 10, 7.310532623705512e-08
0, 5, 11, 6.57901537692851e-08
0, 5, 12, 7.196566542688743e-08
0, 5, 13, 6.57375309742747e-08
0, 5, 14, 5.975441297323414e-08
0, 5, 15, 5.774930400548328e-08
0, 5, 16, 5.552193726998667e-08
0, 5, 17, 6.041288713731774e-08
0, 5, 18, 5.640763234282531e-08
0, 5, 19, 5.602927188874673e-08
0, 5, 20, 6.057088342004135e-08
0, 5, 21, 5.755762799708464e-08
0, 5, 22, 5.903316946387349e-08
0, 5, 23, 6.385172923728533e-08
0, 5, 24, 6.145344855212898e-08
0, 5, 25, 5.637065214614267e-08
0, 5, 26, 5.944725955941976e-08
0, 5, 27, 5.719274653870343e-08
0, 5, 28, 5.611483899770064e-08
0, 5, 29, 5.983870465797736e-08
0, 5, 30, 5.632603361505062e-08
0, 5, 31, 5.278110037920669e-08
0, 5, 32, 5.727572016667182e-08
0, 5, 33, 5.867535435299942e-08
0, 5, 34, 6.310412459242798e-08
0, 5, 35, 6.187098477994368e-08
0, 5, 36, 5.978598238698396e-08
0, 5, 37, 7.327832207693064e-08
0, 5, 38, 5.606273134617368e-08
0, 5, 39, 6.35994510389537e-08
0, 5, 40, 6.326636281528408e-08
0, 5, 41, 6.611679026491402e-08
0, 5, 42, 6.824406284522411e-08
0, 5, 43, 6.749786507498357e-08
0, 5, 44, 6.530781604396907e-08
0, 5, 45, 8.008419882798989e-08
0, 5, 46, 7.006653390817519e-08
0, 5, 47, 6.855413658968246e-08
0, 5, 48, 7.243808397561224e-08
0, 5, 49, 8.032878895392059e-08
0, 5, 50, 6.592321710741089e-08
0, 5, 51, 7.109410660177673e-08
0, 5, 52, 7.84820031185518e-08
0, 5, 53, 7.812082003511023e-08
0, 5, 54, 8.149504537868779e-08
0, 5, 55, 9.077816542912842e-08
0, 5, 56, 8.166546905385985e-08
0, 5, 57, 8.875529999841092e-08
0, 5, 58, 1.031881922131106e-07
0, 5, 59, 1.032266325751152e-07
0, 5, 60, 8.38418685589204e-08
0, 5, 61, 9.888898233612053e-08
0, 5, 62, 8.323794986608846e-08
0, 5, 63, 1.074953388524591e-07
0, 5, 64, 1.034235097563396e-07
0, 5, 65, 1.129790163645339e-07
0, 5, 66, 1.118994532589568e-07
0, 5, 67, 1.146584835964859e-07
0, 5, 68, 1.02307474492136e-07
0, 5, 69, 1.138374656761698e-07
0, 5, 70, 1.26380143683491e-07
0, 5, 71, 1.114662566692459e-07
0, 5, 72, 1.011763828273615e-07
0, 5, 73, 1.116902410558396e-07
0, 5, 74, 1.172656709513831e-07
0, 5, 75, 1.214537803662097e-07
0, 5, 76, 1.169752721352779e-07
0, 5, 77, 1.136521561306836e-07
0, 5, 78, 1.152450721519926e-07
0, 5, 79, 1.313385382673005e-07
0, 5, 80, 1.285935411488026e-07
0, 5, 81, 1.146492820680578e-07
0, 5, 82, 1.208548638942375e-07
0, 5, 83, 1.156586293404871e-07
0, 5, 84, 1.058503897866103e-07
0, 5, 85, 1.192438503494486e-07
0, 5, 86, 1.261054620727009e-07
0, 5, 87, 1.272399146046155e-07
0, 5, 88, 1.275159178248941e-07
0, 5, 89, 1.179074047286122e-07
0, 5, 90, 1.176219015519564e-07
0, 5, 91, 1.268306561996724e-07
0, 5, 92, 1.240826463799749e-07
0, 5, 93, 1.253037424930881e-07
0, 5, 94, 1.398155262677392e-07
0, 5, 95, 1.35137497636606e-07
0, 5, 96, 1.288655937514704e-07
0, 5, 97, 1.344263438340931e-07
0, 5, 98, 1.255427690693978e-07
0, 5, 99, 1.362416668371225e-07
0, 5, 100, 1.363802226705957e-07
0, 5, 101, 1.206529134378798e-07
0, 5, 102, 1.250708692168701e-07
0, 5, 103, 1.333866350705648e-07
0, 5, 104, 1.365050650292687e-07
0, 5, 105, 1.294641691629295e-07
0, 5, 106, 1.365063866387572e-07
0, 5, 107, 1.371698772345553e-07
0, 5, 108, 1.234770508062866e-07
0, 5, 109, 1.449218132165697e-07
0, 5, 110, 1.314948718800224e-07
0, 5, 111, 1.49058791976131e-07
0, 5, 112, 1.326886547303729e-07
0, 5, 113, 1.374317832869565e-07
0, 5, 114, 1.439072008224684e-07
0, 5, 115, 1.429851721468367e-07
0, 5, 116, 1.501790904967493e-07
0, 5, 117, 1.563032725471203e-07
0, 5, 118, 1.487385787868334e-07
0, 5, 119, 1.480695459576964e-07
0, 5, 120, 1.582992155135798e-07
0, 5, 121, 1.460774399220099e-07
0, 5, 122, 1.399855165118424e-07
0, 5, 123, 1.31263263369874e-07
0, 5, 124, 1.414371268992909e-07
0, 5, 125, 1.348680882529152e-07
0, 5, 126, 1.482538465324978e-07
0, 5, 127, 1.464441936604999e-07
0, 5, 128, 1.583779578595568e-07
0, 5, 129, 1.501945376958247e-07
0, 6, 0, 1.540527705401473e-07
0, 6, 1, 1.449189426239172e-07
0, 6, 2, 1.303040590983073e-07
0, 6, 3, 1.219239749161716e-07
0, 6, 4, 1.094163764037148e-07
0, 6, 5, 1.029954717068904e-07
0, 6, 6, 9.038948434181293e-08
0, 6, 7, 9.317823668197889e-08
0, 6, 8, 8.492196457154932e-08
0, 6, 9, 8.575926813136903e-08
0, 6, 10, 7.905060073198911e-08
0, 6, 11, 7.931727452614723e-08
0, 6, 12, 8.341065438344231e-08
0, 6, 13, 7.003617952250352e-08
0, 6, 14, 7.14952932412416e-08
0, 6, 15, 6.225447179986077e-08
0, 6, 16, 6.410279951296616e-08
0, 6, 17, 5.276032055689939e-08
0, 6, 18, 6.450885337017098e-08
0, 6, 19, 6.250710526956027e-08
0, 6, 20, 5.836581351559289e-08
0, 6, 21, 5.574949923925487e-08
0, 6, 22, 5.526383972664917e-08
0, 6, 23, 5.694023386126901e-08
0, 6, 24, 5.569766869939485e-08
0, 6, 25, 5.910236211548181e-08
0, 6, 26, 6.245566197549124e-08
0, 6, 27, 6.565824151039124e-08
0, 6, 28, 5.815334702674591e-08
0, 6, 29, 5.909091171929504e-08
0, 6, 30, 6.316069089962184e-08
0, 6, 31, 5.503087763258918e-08
0, 6, 32, 5.990929707877513e-08
0, 6, 33, 5.940820457794871e-08
0, 6, 34, 6.341251435060258e-08
0, 6, 35, 7.408316804458082e-08
0, 6, 36, 7.145036562405949e-08
0, 6, 37, 6.459602275299403e-08
0, 6, 38, 6.630165216847672e-08
0, 6, 39, 6.973698418732965e-08
0, 6, 40, 5.953543080750023e-08
0, 6, 41, 6.696306087405901e-08
0, 6, 42, 7.452189265677589e-08
0, 6, 43, 6.6689196387415e-08
0, 6, 44, 6.170794364379617e-08
0, 6, 45, 6.319627487982871e-08
0, 6, 46, 7.695918924355283e-08
0, 6, 47, 6.415778841528663e-08
0, 6, 48, 8.662190964514593e-08
0, 6, 49, 8.942761553498713e-08
0, 6, 50, 9.276241996758472e-08
0, 6, 51, 8.193775613563048e-08
0, 6, 52, 8.343131696619821e-08
0, 6, 53, 8.680279961481574e-08
0, 6, 54, 9.428293878954719e-08
0, 6, 55, 1.048986391083417e-07
0, 6, 56, 9.417736634986795e-08
0, 6, 57, 9.236761400188698e-08
0, 6, 58, 9.926481681077348e-08
0, 6, 59, 1.000161589104209e-07
0, 6, 60, 9.962163716181749e-08
0, 6, 61, 1.070008295300795e-07
0, 6, 62, 9.472691431255953e-08
0, 6, 63, 1.036975447732402e-07
0, 6, 64, 9.990187521680127e-08
0, 6, 65, 9.465332340141686e-08
0, 6, 66, 1.03857153987974e-07
0, 6, 67, 1.08190199910041e-07
0, 6, 68, 1.028888618748169e-07
0, 6, 69, 1.181657580673345e-07
0, 6, 70, 1.165714280659813e-07
0, 6, 71, 1.281579926626364e-07
0, 6, 72, 1.140098291330105e-07
0, 6, 73, 1.163618321697868e-07
0, 6, 74, 1.274112264582072e-07
0, 6, 75, 1.192661329696421e-07
0, 6, 76, 1.437647370039485e-07
0, 6, 77, 1.285445989651635e-07
0, 6, 78, 1.07382874148243e-07
0, 6, 79, 1.273590868322572e-07
0, 6, 80, 1.345908913208405e-07
0, 6, 81, 1.325025920095868e-07
0, 6, 82, 1.25041879073251e-07
0, 6, 83, 1.368292714687414e-07
0, 6, 84, 1.313211157594196e-07
0, 6, 85, 1.422935866912667e-07
0, 6, 86, 1.204833637302727e-07
0, 6, 87, 1.222070693529531e-07
0, 6, 88, 1.317833948633051e-07
0, 6, 89, 1.300667946679823e-07
0, 6, 90, 1.430953489034437e-07
0, 6, 91, 1.230651065498023e-07
0, 6, 92, 1.382136218808228e-07
0, 6, 93, 1.248587722102457e-07
0, 6, 94, 1.293247464673186e-07
0, 6, 95, 1.369226936276391e-07
0, 6, 96, 1.395196278508593e-07
0, 6, 97, 1.345968172472567e-07
0, 6, 98, 1.288641868768536e-07
0, 6, 99, 1.4239820700368e-07
0, 6, 100, 1.523343513554209e-07
0, 6, 101, 1.45212453617205e-07
0, 6, 102, 1.453127964623491e-07
0, 6, 103, 1.515841461241507e-07
0, 6, 104, 1.536118929834629e-07
0, 6, 105, 1.445045114678578e-07
0, 6, 106, 1.482426768006917e-07
0, 6, 107, 1.546602845792222e-07
0, 6, 108, 1.527730262296245e-07
0, 6, 109, 1.467092687335025e-07
0, 6, 110, 1.529285214019183e-07
0, 6, 111, 1.413493890822792e-07
0, 6, 112, 1.459018221794395e-07
0, 6, 113, 1.429094425020594e-07
0, 6, 114, 1.48765792573613e-07
0, 6, 115, 1.518577761316919e-07
0, 6, 116, 1.308242190134479e-07
0, 6, 117, 1.555753641468982e-07
0, 6, 118, 1.567882748076954e-07
0, 6, 119, 1.496964756597663e-07
0, 6, 120, 1.708519619114668e-07
0, 6, 121, 1.382301491048565e-07
0, 6, 122, 1.485986871330169e-07
0, 6, 123, 1.512643166279304e-07
0, 6, 124, 1.62320390018067e-07
0, 6, 125, 1.606962172218118e-07
0, 6, 126, 1.686377544274364e-07
0, 6, 127, 1.731693686224389e-07
0, 6, 128, 1.559383235871792e-07
0, 6, 129, 1.596179259877317e-07
0, 7, 0, 1.313505606503895e-07
0, 7, 1, 1.298355698509113e-07
0, 7, 2, 1.247822183358949e-07
0, 7, 3, 1.184685132216146e-07
0, 7, 4, 1.161821074902036e-07
0, 7, 5, 9.638457498795105e-08
0, 7, 6, 8.727908351602309e-08
0, 7, 7, 7.59603722144675e-08
0, 7, 8, 8.390051675633003e-08
0, 7, 9, 8.203917190030552e-08
0, 7, 10, 8.41833553977267e-08
0, 7, 11, 7.619559738714088e-08
0, 7, 12, 7.808749558080308e-08
0, 7, 13, 6.580511779930021e-08
0, 7, 14, 6.627607262998936e-08
0, 7, 15, 6.835989552200772e-08
0, 7, 16, 6.590286716345872e-08
0, 7, 17, 7.045067462740917e-08
0, 7, 18, 6.668037144663685e-08
