# TOPAS Version: 3.7
# Parameter File: Validacao_varian10MV
# Results for scorer DoseNaCaixa
# Scored in component: Phantom
# X in 15 bins of 2 cm
# Y in 15 bins of 2 cm
# Z in 100 bins of 0.3 cm
# DoseToMedium ( Gy ) : Sum   
0, 0, 0, 2.29606502699653e-08
0, 0, 1, 1.434855878557073e-08
0, 0, 2, 1.139464078647734e-08
0, 0, 3, 8.260975903340295e-09
0, 0, 4, 7.549892266922598e-09
0, 0, 5, 7.656824507762394e-09
0, 0, 6, 7.083231778892696e-09
0, 0, 7, 6.920610751137701e-09
0, 0, 8, 7.518037747900053e-09
0, 0, 9, 7.352688680128949e-09
0, 0, 10, 7.068384544339779e-09
0, 0, 11, 7.855406991552627e-09
0, 0, 12, 7.938494306358734e-09
0, 0, 13, 8.064819922992683e-09
0, 0, 14, 7.890331943372075e-09
0, 0, 15, 8.312982302527416e-09
0, 0, 16, 8.931079875651449e-09
0, 0, 17, 9.65832303023717e-09
0, 0, 18, 8.445347532415326e-09
0, 0, 19, 8.422093245030737e-09
0, 0, 20, 9.477044926597955e-09
0, 0, 21, 9.777734177873754e-09
0, 0, 22, 1.042905584114351e-08
0, 0, 23, 1.043352249041618e-08
0, 0, 24, 1.112876102382643e-08
0, 0, 25, 1.101880275911071e-08
0, 0, 26, 1.10389235530306e-08
0, 0, 27, 1.095734791789482e-08
0, 0, 28, 1.083739675777906e-08
0, 0, 29, 1.13896572173644e-08
0, 0, 30, 1.230242396843551e-08
0, 0, 31, 1.173776986718167e-08
0, 0, 32, 1.219735956681234e-08
0, 0, 33, 1.271304039818233e-08
0, 0, 34, 1.234301727492948e-08
0, 0, 35, 1.365426882671272e-08
0, 0, 36, 1.296317186927354e-08
0, 0, 37, 1.31374324752187e-08
0, 0, 38, 1.378141867292015e-08
0, 0, 39, 1.460914322848339e-08
0, 0, 40, 1.292877893632749e-08
0, 0, 41, 1.400808091744921e-08
0, 0, 42, 1.488769996171868e-08
0, 0, 43, 1.465836962921685e-08
0, 0, 44, 1.613698685787313e-08
0, 0, 45, 1.581638642278449e-08
0, 0, 46, 1.530640325597687e-08
0, 0, 47, 1.7108732208726e-08
0, 0, 48, 1.497324220167684e-08
0, 0, 49, 1.649099168332668e-08
0, 0, 50, 1.51024401873201e-08
0, 0, 51, 1.678945871219639e-08
0, 0, 52, 1.719250697362895e-08
0, 0, 53, 1.694976070609755e-08
0, 0, 54, 1.687471495870341e-08
0, 0, 55, 1.644212410667478e-08
0, 0, 56, 1.709456931564546e-08
0, 0, 57, 1.719715925219134e-08
0, 0, 58, 1.746073330366471e-08
0, 0, 59, 1.737593002815174e-08
0, 0, 60, 1.749622136060225e-08
0, 0, 61, 1.810025196391507e-08
0, 0, 62, 1.900716384284351e-08
0, 0, 63, 1.905259416901117e-08
0, 0, 64, 2.004299481939142e-08
0, 0, 65, 1.739384991594761e-08
0, 0, 66, 1.83848651857943e-08
0, 0, 67, 1.986916053908772e-08
0, 0, 68, 1.855713094300881e-08
0, 0, 69, 1.780587410848966e-08
0, 0, 70, 1.89815914097835e-08
0, 0, 71, 2.089609907329759e-08
0, 0, 72, 1.989491948961586e-08
0, 0, 73, 2.027748990940381e-08
0, 0, 74, 2.042136770796787e-08
0, 0, 75, 2.073022642434807e-08
0, 0, 76, 2.114790653706677e-08
0, 0, 77, 2.135721643981014e-08
0, 0, 78, 1.9496907199823e-08
0, 0, 79, 1.955230644057337e-08
0, 0, 80, 2.00932408489507e-08
0, 0, 81, 2.238400220733183e-08
0, 0, 82, 2.154545164501087e-08
0, 0, 83, 2.02659791170845e-08
0, 0, 84, 2.040682645088054e-08
0, 0, 85, 2.134048138202616e-08
0, 0, 86, 1.899869594979009e-08
0, 0, 87, 1.978121133561217e-08
0, 0, 88, 1.942241212304907e-08
0, 0, 89, 2.006643917695783e-08
0, 0, 90, 2.160169820797364e-08
0, 0, 91, 2.091174522433903e-08
0, 0, 92, 2.037709023738898e-08
0, 0, 93, 2.096414952745818e-08
0, 0, 94, 1.94091267502472e-08
0, 0, 95, 1.867316257175844e-08
0, 0, 96, 1.901631740963694e-08
0, 0, 97, 2.021903711124651e-08
0, 0, 98, 1.94396179153955e-08
0, 0, 99, 1.830530571567124e-08
0, 1, 0, 2.70994409135028e-08
0, 1, 1, 1.662969140170389e-08
0, 1, 2, 1.523723902607799e-08
0, 1, 3, 1.164367535722022e-08
0, 1, 4, 1.032299667969028e-08
0, 1, 5, 9.160520342277323e-09
0, 1, 6, 9.641602183307896e-09
0, 1, 7, 9.016431157249372e-09
0, 1, 8, 1.013929740167896e-08
0, 1, 9, 9.472728379478212e-09
0, 1, 10, 9.591862415447849e-09
0, 1, 11, 9.767914477265549e-09
0, 1, 12, 1.061971754978686e-08
0, 1, 13, 1.04718047566621e-08
0, 1, 14, 1.117796877281307e-08
0, 1, 15, 1.077100453272806e-08
0, 1, 16, 1.162490370631986e-08
0, 1, 17, 1.152645268120978e-08
0, 1, 18, 1.107793856647277e-08
0, 1, 19, 1.238966884642423e-08
0, 1, 20, 1.385957837385376e-08
0, 1, 21, 1.247794578773664e-08
0, 1, 22, 1.305975327881015e-08
0, 1, 23, 1.316554953945115e-08
0, 1, 24, 1.487287182300179e-08
0, 1, 25, 1.453225806358205e-08
0, 1, 26, 1.475425825958609e-08
0, 1, 27, 1.457271636695623e-08
0, 1, 28, 1.497808455042104e-08
0, 1, 29, 1.561347851009032e-08
0, 1, 30, 1.588923836948197e-08
0, 1, 31, 1.62655542368384e-08
0, 1, 32, 1.48529810672926e-08
0, 1, 33, 1.669403104642697e-08
0, 1, 34, 1.723327791580687e-08
0, 1, 35, 1.693472739816571e-08
0, 1, 36, 1.789311276922945e-08
0, 1, 37, 1.807003080500635e-08
0, 1, 38, 1.691232043299351e-08
0, 1, 39, 1.822258610673089e-08
0, 1, 40, 1.851622322135427e-08
0, 1, 41, 1.97346263774989e-08
0, 1, 42, 1.882155586940826e-08
0, 1, 43, 1.961543638628882e-08
0, 1, 44, 1.960223272590156e-08
0, 1, 45, 1.981618424906628e-08
0, 1, 46, 2.133949728033713e-08
0, 1, 47, 2.017661415720795e-08
0, 1, 48, 2.093205964115441e-08
0, 1, 49, 2.100581752983999e-08
0, 1, 50, 2.073754323816956e-08
0, 1, 51, 2.320030034752563e-08
0, 1, 52, 2.012796862516097e-08
0, 1, 53, 2.231768370108966e-08
0, 1, 54, 2.28726939610624e-08
0, 1, 55, 2.178993341317437e-08
0, 1, 56, 2.221648287559219e-08
0, 1, 57, 2.260472342641151e-08
0, 1, 58, 2.394997977717139e-08
0, 1, 59, 2.449086622391405e-08
0, 1, 60, 2.344579286273074e-08
0, 1, 61, 2.441145241505183e-08
0, 1, 62, 2.319826997165819e-08
0, 1, 63, 2.331848847347828e-08
0, 1, 64, 2.38778081751434e-08
0, 1, 65, 2.272133414749078e-08
0, 1, 66, 2.64020538764953e-08
0, 1, 67, 2.510241081665754e-08
0, 1, 68, 2.618902961160074e-08
0, 1, 69, 2.418766698042418e-08
0, 1, 70, 2.609491112082196e-08
0, 1, 71, 2.601398030321889e-08
0, 1, 72, 2.605041693470866e-08
0, 1, 73, 2.559392342504907e-08
0, 1, 74, 2.534732601588985e-08
0, 1, 75, 2.566574686113654e-08
0, 1, 76, 2.481824878941552e-08
0, 1, 77, 2.326313186529205e-08
0, 1, 78, 2.315699099142421e-08
0, 1, 79, 2.74217075713068e-08
0, 1, 80, 2.568576817907342e-08
0, 1, 81, 2.652207697906306e-08
0, 1, 82, 2.55661252168693e-08
0, 1, 83, 2.653328046164916e-08
0, 1, 84, 2.751919225829624e-08
0, 1, 85, 2.510639518504831e-08
0, 1, 86, 2.522460107456936e-08
0, 1, 87, 2.66880046950746e-08
0, 1, 88, 2.525786690910081e-08
0, 1, 89, 2.459405656907165e-08
0, 1, 90, 2.705363932875571e-08
0, 1, 91, 2.595862369503266e-08
0, 1, 92, 2.478294547358928e-08
0, 1, 93, 2.470750537497679e-08
0, 1, 94, 2.445872482326195e-08
0, 1, 95, 2.530911658027435e-08
0, 1, 96, 2.384567743263233e-08
0, 1, 97, 2.565372625440432e-08
0, 1, 98, 2.754866379461873e-08
0, 1, 99, 2.497935724932177e-08
0, 2, 0, 3.350709931737583e-08
0, 2, 1, 2.472096127803525e-08
0, 2, 2, 2.019692324495281e-08
0, 2, 3, 1.460304321909689e-08
0, 2, 4, 1.278795114245668e-08
0, 2, 5, 1.217354661520176e-08
0, 2, 6, 1.183865272480489e-08
0, 2, 7, 1.142191052849739e-08
0, 2, 8, 1.066690380469026e-08
0, 2, 9, 1.121361137279564e-08
0, 2, 10, 1.148475270440485e-08
0, 2, 11, 1.248067871273406e-08
0, 2, 12, 1.258701942674634e-08
0, 2, 13, 1.329258392246402e-08
0, 2, 14, 1.347498823633941e-08
0, 2, 15, 1.386294012917233e-08
0, 2, 16, 1.527488358021856e-08
0, 2, 17, 1.487397405242064e-08
0, 2, 18, 1.551555506296154e-08
0, 2, 19, 1.46782408450008e-08
0, 2, 20, 1.731288712392143e-08
0, 2, 21, 1.562368012741899e-08
0, 2, 22, 1.529757831519873e-08
0, 2, 23, 1.740765576130343e-08
0, 2, 24, 1.689020656669982e-08
0, 2, 25, 1.830017559711905e-08
0, 2, 26, 1.818346007098626e-08
0, 2, 27, 1.815256389647857e-08
0, 2, 28, 1.835701901597986e-08
0, 2, 29, 1.900456680914431e-08
0, 2, 30, 2.024328971117484e-08
0, 2, 31, 1.937434568333174e-08
0, 2, 32, 2.058889059242119e-08
0, 2, 33, 2.156890843707515e-08
0, 2, 34, 2.101216267647033e-08
0, 2, 35, 2.233205087520673e-08
0, 2, 36, 2.207801941267462e-08
0, 2, 37, 2.184041747455012e-08
0, 2, 38, 2.179023539383707e-08
0, 2, 39, 2.404536481037667e-08
0, 2, 40, 2.220733641422612e-08
0, 2, 41, 2.347126581980774e-08
0, 2, 42, 2.47116265228442e-08
0, 2, 43, 2.533846732433176e-08
0, 2, 44, 2.337904447813344e-08
0, 2, 45, 2.554811118216094e-08
0, 2, 46, 2.569702672872154e-08
0, 2, 47, 2.57816132887001e-08
0, 2, 48, 2.611119676032558e-08
0, 2, 49, 2.548646271804955e-08
0, 2, 50, 2.660353715100428e-08
0, 2, 51, 2.738663695822652e-08
0, 2, 52, 2.677809440854162e-08
0, 2, 53, 2.544025790029991e-08
0, 2, 54, 2.913088970046829e-08
0, 2, 55, 2.780767438537168e-08
0, 2, 56, 2.796237552615821e-08
0, 2, 57, 2.894323536395405e-08
0, 2, 58, 2.725831649286192e-08
0, 2, 59, 3.126993775026676e-08
0, 2, 60, 2.943179033820797e-08
0, 2, 61, 2.813186839034643e-08
0, 2, 62, 2.971521873007532e-08
0, 2, 63, 3.085050792606125e-08
0, 2, 64, 3.289164496322883e-08
0, 2, 65, 3.202710274763376e-08
0, 2, 66, 3.076285537417789e-08
0, 2, 67, 3.131735226702403e-08
0, 2, 68, 3.163979300779829e-08
0, 2, 69, 3.040244322960461e-08
0, 2, 70, 3.415801330675095e-08
0, 2, 71, 3.125195391362467e-08
0, 2, 72, 3.087427202785875e-08
0, 2, 73, 3.116451097184836e-08
0, 2, 74, 3.305267881614782e-08
0, 2, 75, 3.129395764744913e-08
0, 2, 76, 3.083021482552795e-08
0, 2, 77, 3.408412396765925e-08
0, 2, 78, 3.519226154935495e-08
0, 2, 79, 3.423310701577975e-08
0, 2, 80, 3.338975673727873e-08
0, 2, 81, 3.164904782693156e-08
0, 2, 82, 3.361864742146281e-08
0, 2, 83, 3.493158118317297e-08
0, 2, 84, 3.36666126088403e-08
0, 2, 85, 3.330314513050325e-08
0, 2, 86, 3.411508231465632e-08
0, 2, 87, 3.338826459753363e-08
0, 2, 88, 3.601245168738387e-08
0, 2, 89, 3.448693774998901e-08
0, 2, 90, 3.464507614125978e-08
0, 2, 91, 3.597230602281343e-08
0, 2, 92, 3.344458221476998e-08
0, 2, 93, 3.523906855207315e-08
0, 2, 94, 3.22391073837025e-08
0, 2, 95, 2.898954321040037e-08
0, 2, 96, 2.990108072253861e-08
0, 2, 97, 3.379838275918701e-08
0, 2, 98, 3.179226837346505e-08
0, 2, 99, 2.897927764422548e-08
0, 3, 0, 3.427531680699758e-08
0, 3, 1, 2.565433732115707e-08
0, 3, 2, 1.916105674126811e-08
0, 3, 3, 1.787387482465874e-08
0, 3, 4, 1.598285237491837e-08
0, 3, 5, 1.420657280704063e-08
0, 3, 6, 1.301445085033492e-08
0, 3, 7, 1.388399883950342e-08
0, 3, 8, 1.395556381567076e-08
0, 3, 9, 1.451329900703513e-08
0, 3, 10, 1.410495809039958e-08
0, 3, 11, 1.546949057740221e-08
0, 3, 12, 1.488597956011972e-08
0, 3, 13, 1.654474601764377e-08
0, 3, 14, 1.64776832178859e-08
0, 3, 15, 1.564972684775512e-08
0, 3, 16, 1.80731394294753e-08
0, 3, 17, 1.787266157293743e-08
0, 3, 18, 1.771919322379745e-08
0, 3, 19, 1.978754582410147e-08
0, 3, 20, 1.876436428460693e-08
0, 3, 21, 2.038312985064294e-08
0, 3, 22, 2.109158181440307e-08
0, 3, 23, 2.103876362014034e-08
0, 3, 24, 2.120545161687915e-08
0, 3, 25, 2.084794559209513e-08
0, 3, 26, 2.208531491021404e-08
0, 3, 27, 2.277222144186908e-08
0, 3, 28, 2.377178276447012e-08
0, 3, 29, 2.351956673862787e-08
0, 3, 30, 2.374070895427849e-08
0, 3, 31, 2.334962445615929e-08
0, 3, 32, 2.671182386393411e-08
0, 3, 33, 2.542236998692715e-08
0, 3, 34, 2.48027429705644e-08
0, 3, 35, 2.664354781245493e-08
0, 3, 36, 2.479642802200033e-08
0, 3, 37, 2.649472463644997e-08
0, 3, 38, 2.747466965047352e-08
0, 3, 39, 2.721473002509356e-08
0, 3, 40, 2.920421948715557e-08
0, 3, 41, 2.969903967198206e-08
0, 3, 42, 3.033567708143892e-08
0, 3, 43, 2.985734681715257e-08
0, 3, 44, 3.044544172325914e-08
0, 3, 45, 3.256449687683016e-08
0, 3, 46, 3.074249477208468e-08
0, 3, 47, 3.190567099409236e-08
0, 3, 48, 3.130788073235635e-08
0, 3, 49, 3.157481387461303e-08
0, 3, 50, 3.222350741793889e-08
0, 3, 51, 3.321523323052133e-08
0, 3, 52, 3.296880279890502e-08
0, 3, 53, 3.393631331505276e-08
0, 3, 54, 3.550322702494668e-08
0, 3, 55, 3.492612066224865e-08
0, 3, 56, 3.349640920191632e-08
0, 3, 57, 3.716555241339847e-08
0, 3, 58, 3.622049860041443e-08
0, 3, 59, 3.696482764325992e-08
0, 3, 60, 3.69853943027465e-08
0, 3, 61, 3.575214790885184e-08
0, 3, 62, 3.799920733627005e-08
0, 3, 63, 3.710146145863291e-08
0, 3, 64, 3.811090820704521e-08
0, 3, 65, 3.923625513380102e-08
0, 3, 66, 3.536582582341907e-08
0, 3, 67, 3.902247414089288e-08
0, 3, 68, 3.886001920250237e-08
0, 3, 69, 4.149629617700157e-08
0, 3, 70, 3.882333388105508e-08
0, 3, 71, 4.011350540622516e-08
0, 3, 72, 3.865881126330351e-08
0, 3, 73, 4.008584397752202e-08
0, 3, 74, 3.867021192149878e-08
0, 3, 75, 3.97323276501993e-08
0, 3, 76, 3.785549651524889e-08
0, 3, 77, 4.092700223168322e-08
0, 3, 78, 4.012536436448499e-08
0, 3, 79, 3.838020035118461e-08
0, 3, 80, 4.030654920939014e-08
0, 3, 81, 4.298480504871804e-08
0, 3, 82, 3.83433835793312e-08
0, 3, 83, 4.359356964300787e-08
0, 3, 84, 4.225519489864382e-08
0, 3, 85, 4.254198415765131e-08
0, 3, 86, 4.216648363808417e-08
0, 3, 87, 4.112304452519311e-08
0, 3, 88, 4.004624187814443e-08
0, 3, 89, 4.362713568184517e-08
0, 3, 90, 3.970751549786655e-08
0, 3, 91, 3.888829880338562e-08
0, 3, 92, 4.10536991068966e-08
0, 3, 93, 4.082555449258507e-08
0, 3, 94, 3.940471060559503e-08
0, 3, 95, 4.116132146236851e-08
0, 3, 96, 3.71068260562879e-08
0, 3, 97, 3.913473278771562e-08
0, 3, 98, 4.14350722621748e-08
0, 3, 99, 4.141051945794061e-08
0, 4, 0, 4.258810903934318e-08
0, 4, 1, 2.855409420021715e-08
0, 4, 2, 2.432098256122117e-08
0, 4, 3, 1.993735487815229e-08
0, 4, 4, 1.82590422781459e-08
0, 4, 5, 1.636011681682703e-08
0, 4, 6, 1.594330711895964e-08
0, 4, 7, 1.612897371217059e-08
0, 4, 8, 1.659382320440272e-08
0, 4, 9, 1.633350343865914e-08
0, 4, 10, 1.768064095131194e-08
0, 4, 11, 1.762859369591752e-08
0, 4, 12, 1.923640624568179e-08
0, 4, 13, 1.813963557140141e-08
0, 4, 14, 1.993322484850069e-08
0, 4, 15, 1.934774118694804e-08
0, 4, 16, 1.98374472404339e-08
0, 4, 17, 2.054489200986609e-08
0, 4, 18, 2.146830979654624e-08
0, 4, 19, 2.267916165976658e-08
0, 4, 20, 2.279688438022731e-08
0, 4, 21, 2.285828593073802e-08
0, 4, 22, 2.370541096752277e-08
0, 4, 23, 2.330169124320491e-08
0, 4, 24, 2.503347928950461e-08
0, 4, 25, 2.519331765427069e-08
0, 4, 26, 2.662383735696494e-08
0, 4, 27, 2.577038671347509e-08
0, 4, 28, 2.641223773025558e-08
0, 4, 29, 2.859030523438832e-08
0, 4, 30, 2.73310103438007e-08
0, 4, 31, 2.88443349205636e-08
0, 4, 32, 2.982056912514963e-08
0, 4, 33, 2.973171930875651e-08
0, 4, 34, 3.021945360615064e-08
0, 4, 35, 3.055287578490606e-08
0, 4, 36, 3.184036501124865e-08
0, 4, 37, 3.156858241482041e-08
0, 4, 38, 3.209029131312491e-08
0, 4, 39, 3.387437885749023e-08
0, 4, 40, 3.474083953847185e-08
0, 4, 41, 3.377710555696467e-08
0, 4, 42, 3.575232909724946e-08
0, 4, 43, 3.842320239755281e-08
0, 4, 44, 3.743189935789815e-08
0, 4, 45, 3.598225362111407e-08
0, 4, 46, 3.748426635752367e-08
0, 4, 47, 3.701019579693821e-08
0, 4, 48, 3.84467000458244e-08
0, 4, 49, 3.778779245067199e-08
0, 4, 50, 3.906145806809036e-08
0, 4, 51, 3.965439177022745e-08
0, 4, 52, 4.177579526754016e-08
0, 4, 53, 4.038928480554205e-08
0, 4, 54, 4.004601095175531e-08
0, 4, 55, 4.329075409259531e-08
0, 4, 56, 4.27201456432158e-08
0, 4, 57, 4.20703187842264e-08
0, 4, 58, 4.261189801013643e-08
0, 4, 59, 4.527486652250445e-08
0, 4, 60, 4.292115107773498e-08
0, 4, 61, 4.439264955635736e-08
0, 4, 62, 4.26012611853821e-08
0, 4, 63, 4.450671298172892e-08
0, 4, 64, 4.530000197178197e-08
0, 4, 65, 4.603554870641346e-08
0, 4, 66, 4.511986873012575e-08
0, 4, 67, 4.89175988604984e-08
0, 4, 68, 4.317711344015152e-08
0, 4, 69, 4.684136101218428e-08
0, 4, 70, 4.715662171861368e-08
0, 4, 71, 4.601314174124127e-08
0, 4, 72, 4.925584562442964e-08
0, 4, 73, 4.812250864461021e-08
0, 4, 74, 4.813689713500935e-08
0, 4, 75, 4.776372009018814e-08
0, 4, 76, 4.820329735366613e-08
0, 4, 77, 4.995509073069115e-08
0, 4, 78, 4.784655871503674e-08
0, 4, 79, 4.505639239482662e-08
0, 4, 80, 4.696762800904253e-08
0, 4, 81, 4.568018141526409e-08
0, 4, 82, 4.699127131857495e-08
0, 4, 83, 4.543187515082536e-08
0, 4, 84, 5.247697032473297e-08
0, 4, 85, 4.903123951294219e-08
0, 4, 86, 4.605452730288562e-08
0, 4, 87, 4.739450787383248e-08
0, 4, 88, 4.755613502993583e-08
0, 4, 89, 4.857198376839733e-08
0, 4, 90, 4.770051731384228e-08
0, 4, 91, 4.734629399649748e-08
0, 4, 92, 4.825156096899264e-08
0, 4, 93, 4.908304873652014e-08
0, 4, 94, 5.290041471539553e-08
0, 4, 95, 5.065085062483377e-08
0, 4, 96, 5.019560234131859e-08
0, 4, 97, 4.572181921957963e-08
0, 4, 98, 4.662302544033992e-08
0, 4, 99, 4.781198015280097e-08
0, 5, 0, 4.52183819277252e-08
0, 5, 1, 3.095895806382032e-08
0, 5, 2, 2.406880561522939e-08
0, 5, 3, 2.14362394501677e-08
0, 5, 4, 1.917392822292641e-08
0, 5, 5, 1.796087367722521e-08
0, 5, 6, 1.728087184460492e-08
0, 5, 7, 1.759409329338268e-08
0, 5, 8, 1.776259495045451e-08
0, 5, 9, 1.838321139757682e-08
0, 5, 10, 1.821605977170293e-08
0, 5, 11, 2.007299748640889e-08
0, 5, 12, 2.002766308351056e-08
0, 5, 13, 2.145678479337221e-08
0, 5, 14, 2.23604121885046e-08
0, 5, 15, 2.04919583524088e-08
0, 5, 16, 2.284110678374418e-08
0, 5, 17, 2.293381662354932e-08
0, 5, 18, 2.346751948323345e-08
0, 5, 19, 2.382512143128679e-08
0, 5, 20, 2.628641482260718e-08
0, 5, 21, 2.46619293875483e-08
0, 5, 22, 2.599359127941625e-08
0, 5, 23, 2.731931303401325e-08
0, 5, 24, 2.907329132995073e-08
0, 5, 25, 2.986487501743795e-08
0, 5, 26, 3.071594179004933e-08
0, 5, 27, 3.028686634820588e-08
0, 5, 28, 3.064873510538746e-08
0, 5, 29, 3.088368671910757e-08
0, 5, 30, 3.188563724165761e-08
0, 5, 31, 3.374366386310612e-08
0, 5, 32, 3.331633990910632e-08
0, 5, 33, 3.34111796007619e-08
0, 5, 34, 3.424019823228264e-08
0, 5, 35, 3.613592269857691e-08
0, 5, 36, 3.776720447490334e-08
0, 5, 37, 3.731257791628195e-08
0, 5, 38, 3.528919734208102e-08
0, 5, 39, 3.743221199670188e-08
0, 5, 40, 3.874541576465163e-08
0, 5, 41, 4.106107098778011e-08
0, 5, 42, 4.108584406026239e-08
0, 5, 43, 4.093895711321238e-08
0, 5, 44, 4.149605814518509e-08
0, 5, 45, 4.144570198150177e-08
0, 5, 46, 4.236076378560938e-08
0, 5, 47, 4.385169916076848e-08
0, 5, 48, 4.398886588319328e-08
0, 5, 49, 4.699865741031317e-08
0, 5, 50, 4.511900186798812e-08
0, 5, 51, 4.645728068908284e-08
0, 5, 52, 4.655132102016069e-08
0, 5, 53, 4.471866432709248e-08
0, 5, 54, 4.83175952581405e-08
0, 5, 55, 4.858928193129941e-08
0, 5, 56, 4.990124224946157e-08
0, 5, 57, 4.771856865204427e-08
0, 5, 58, 4.87171334384584e-08
0, 5, 59, 5.01001942154744e-08
0, 5, 60, 4.982119250485084e-08
0, 5, 61, 5.258205604263821e-08
0, 5, 62, 5.198425867547485e-08
0, 5, 63, 5.302017314079421e-08
0, 5, 64, 5.053007967603662e-08
0, 5, 65, 4.830996758187212e-08
0, 5, 66, 5.265581037861011e-08
0, 5, 67, 5.203023079047853e-08
0, 5, 68, 5.460806917767513e-08
0, 5, 69, 5.355543564178333e-08
0, 5, 70, 5.417502535465246e-08
0, 5, 71, 5.548753634343484e-08
0, 5, 72, 5.456507068402061e-08
0, 5, 73, 5.298348426663324e-08
0, 5, 74, 5.27185726184598e-08
0, 5, 75, 5.656995938352338e-08
0, 5, 76, 5.684791659632538e-08
0, 5, 77, 5.456841734030604e-08
0, 5, 78, 5.641640399289827e-08
0, 5, 79, 5.469475183872419e-08
0, 5, 80, 5.572842454171223e-08
0, 5, 81, 5.639018496594872e-08
0, 5, 82, 5.478174003314962e-08
0, 5, 83, 5.78182621779888e-08
0, 5, 84, 5.560395166526177e-08
0, 5, 85, 5.645378919894029e-08
0, 5, 86, 5.60203616828403e-08
0, 5, 87, 5.759376264791172e-08
0, 5, 88, 5.530694480171405e-08
0, 5, 89, 5.660698221277016e-08
0, 5, 90, 5.622882781608496e-08
0, 5, 91, 5.521219392790044e-08
0, 5, 92, 5.743329722918133e-08
0, 5, 93, 5.582048956398467e-08
0, 5, 94, 5.524682933355507e-08
0, 5, 95, 5.652959345070485e-08
0, 5, 96, 5.426954885479063e-08
0, 5, 97, 5.341517450574429e-08
0, 5, 98, 5.609375719473064e-08
0, 5, 99, 5.173263062374645e-08
0, 6, 0, 4.951122178908918e-08
0, 6, 1, 3.528089465021367e-08
0, 6, 2, 2.856997838307507e-08
0, 6, 3, 2.483369954120462e-08
0, 6, 4, 2.034833102015909e-08
0, 6, 5, 1.867868704152897e-08
0, 6, 6, 1.855788944737924e-08
0, 6, 7, 1.857233122848356e-08
0, 6, 8, 1.932270521365353e-08
0, 6, 9, 1.827481455052293e-08
0, 6, 10, 1.965893048350154e-08
0, 6, 11, 2.008443011902727e-08
0, 6, 12, 2.19750582175493e-08
0, 6, 13, 2.193348613843682e-08
0, 6, 14, 2.342521732145997e-08
0, 6, 15, 2.270497034828622e-08
0, 6, 16, 2.347454675089011e-08
0, 6, 17, 2.561436751591373e-08
0, 6, 18, 2.482597949438059e-08
0, 6, 19, 2.671555066058318e-08
0, 6, 20, 2.860853065556057e-08
0, 6, 21, 2.970302759308652e-08
0, 6, 22, 2.943806975963525e-08
0, 6, 23, 3.141019178087845e-08
0, 6, 24, 3.086701738652664e-08
0, 6, 25, 3.115405533549165e-08
0, 6, 26, 3.115038182954777e-08
0, 6, 27, 3.204939247325456e-08
0, 6, 28, 3.355411593020108e-08
0, 6, 29, 3.567950912497508e-08
0, 6, 30, 3.551962635128803e-08
0, 6, 31, 3.422105621098126e-08
0, 6, 32, 3.690816896551041e-08
0, 6, 33, 3.743029353131533e-08
0, 6, 34, 3.773340750967691e-08
0, 6, 35, 3.700936446193737e-08
0, 6, 36, 4.006807685641434e-08
0, 6, 37, 3.930913905492162e-08
0, 6, 38, 3.974033546683131e-08
0, 6, 39, 3.964584038840258e-08
0, 6, 40, 4.33088551687888e-08
0, 6, 41, 4.155852550979944e-08
0, 6, 42, 4.439740663997327e-08
0, 6, 43, 4.685978893803622e-08
0, 6, 44, 4.549844945245241e-08
0, 6, 45, 4.827995425671361e-08
0, 6, 46, 4.697562872024719e-08
0, 6, 47, 5.03950765562422e-08
0, 6, 48, 4.847000667496104e-08
0, 6, 49, 4.731981562144938e-08
0, 6, 50, 4.980263312859279e-08
0, 6, 51, 4.969719213931967e-08
0, 6, 52, 5.116947221495138e-08
0, 6, 53, 5.13596951634554e-08
0, 6, 54, 5.323171592408471e-08
0, 6, 55, 5.215332166130793e-08
0, 6, 56, 5.386680967944812e-08
0, 6, 57, 5.399554225959946e-08
0, 6, 58, 5.422802829002649e-08
0, 6, 59, 5.333799535378603e-08
0, 6, 60, 5.23882128788955e-08
0, 6, 61, 5.341050979268402e-08
0, 6, 62, 5.621272336497896e-08
0, 6, 63, 5.635797961645039e-08
0, 6, 64, 5.62391768710313e-08
0, 6, 65, 5.57369759235371e-08
0, 6, 66, 5.490195675861287e-08
0, 6, 67, 5.538158021067829e-08
0, 6, 68, 5.726041507614354e-08
0, 6, 69, 5.689209814363494e-08
0, 6, 70, 5.953986459417138e-08
0, 6, 71, 5.600875141453798e-08
0, 6, 72, 5.855896034745456e-08
0, 6, 73, 5.716237083674969e-08
0, 6, 74, 6.153634046768275e-08
0, 6, 75, 5.972458438918693e-08
0, 6, 76, 6.139994468412624e-08
0, 6, 77, 6.013144115968316e-08
0, 6, 78, 6.142956721078008e-08
0, 6, 79, 6.240910011001688e-08
0, 6, 80, 5.972994188141456e-08
0, 6, 81, 5.982505513202341e-08
0, 6, 82, 5.893381072041848e-08
0, 6, 83, 5.976882988534271e-08
0, 6, 84, 5.936827207619899e-08
0, 6, 85, 5.929319968345226e-08
0, 6, 86, 5.9410435682139e-08
0, 6, 87, 6.397223728527024e-08
0, 6, 88, 6.491860915502912e-08
0, 6, 89, 6.304387767386288e-08
0, 6, 90, 6.099373450751955e-08
0, 6, 91, 5.714565531889093e-08
0, 6, 92, 5.935721247851689e-08
0, 6, 93, 5.988839291148906e-08
0, 6, 94, 5.920297851957912e-08
0, 6, 95, 5.960907856206177e-08
0, 6, 96, 5.672459479910685e-08
0, 6, 97, 5.603411779020462e-08
0, 6, 98, 5.535066094353169e-08
0, 6, 99, 5.845829420536575e-08
0, 7, 0, 4.613536219721937e-08
0, 7, 1, 3.563902950531883e-08
0, 7, 2, 2.847565738761659e-08
0, 7, 3, 2.334013871063689e-08
0, 7, 4, 2.208130744918435e-08
0, 7, 5, 1.95421723248046e-08
0, 7, 6, 1.888338552191726e-08
0, 7, 7, 2.031940304902946e-08
0, 7, 8, 1.937111804295455e-08
0, 7, 9, 1.948854944089362e-08
0, 7, 10, 1.995939058474505e-08
0, 7, 11, 2.054011716268178e-08
0, 7, 12, 2.263984377748329e-08
0, 7, 13, 2.254870068441051e-08
0, 7, 14, 2.370309459820419e-08
0, 7, 15, 2.31207781808962e-08
0, 7, 16, 2.450741121151623e-08
0, 7, 17, 2.485339756219673e-08
0, 7, 18, 2.707941959556592e-08
0, 7, 19, 2.74152469614819e-08
0, 7, 20, 2.799856702040415e-08
0, 7, 21, 2.862094206079746e-08
0, 7, 22, 2.842153179472007e-08
0, 7, 23, 3.113409619004415e-08
0, 7, 24, 3.116163682648221e-08
0, 7, 25, 3.225570921472354e-08
0, 7, 26, 3.260266723259519e-08
0, 7, 27, 3.464583997470072e-08
0, 7, 28, 3.433031992017277e-08
0, 7, 29, 3.435781437133301e-08
0, 7, 30, 3.749040899947431e-08
0, 7, 31, 3.707295448407422e-08
0, 7, 32, 3.764624523228122e-08
0, 7, 33, 3.884057164782462e-08
0, 7, 34, 3.964268913136948e-08
0, 7, 35, 4.09888940566816e-08
0, 7, 36, 3.873250875585654e-08
0, 7, 37, 4.087715410605597e-08
0, 7, 38, 4.329561420490791e-08
0, 7, 39, 4.544828513530774e-08
0, 7, 40, 4.43873133804118e-08
0, 7, 41, 4.24832649059681e-08
0, 7, 42, 4.297430322708351e-08
0, 7, 43, 4.710964773835258e-08
0, 7, 44, 4.843349898919769e-08
0, 7, 45, 4.748419257794012e-08
0, 7, 46, 4.471887393719953e-08
0, 7, 47, 4.804104491995531e-08
0, 7, 48, 5.007064629580782e-08
0, 7, 49, 5.029056993066661e-08
0, 7, 50, 5.225292909472046e-08
0, 7, 51, 5.141530579066966e-08
0, 7, 52, 5.296442395774648e-08
0, 7, 53, 5.378822720558674e-08
0, 7, 54, 5.027919414146709e-08
0, 7, 55, 5.067442998551996e-08
0, 7, 56, 5.302017314079421e-08
0, 7, 57, 5.532338320790586e-08
0, 7, 58, 5.479583364831342e-08
0, 7, 59, 5.479659392904068e-08
0, 7, 60, 5.565352267922208e-08
0, 7, 61, 5.451438411796516e-08
0, 7, 62, 5.506725386794642e-08
0, 7, 63, 5.85592374591215e-08
0, 7, 64, 6.190331447442077e-08
0, 7, 65, 5.925490853542215e-08
0, 7, 66, 6.150535369897625e-08
0, 7, 67, 6.25319032110383e-08
0, 7, 68, 6.03292349410367e-08
0, 7, 69, 6.002744612487732e-08
0, 7, 70, 5.690891669019038e-08
0, 7, 71, 6.182045098057642e-08
0, 7, 72, 6.033936728044864e-08
0, 7, 73, 6.328478008299498e-08
0, 7, 74, 6.022115428550023e-08
0, 7, 75, 6.135593366707326e-08
0, 7, 76, 6.224663451348533e-08
0, 7, 77, 6.421324627581271e-08
0, 7, 78, 6.170642308234164e-08
0, 7, 79, 6.211314484971808e-08
0, 7, 80, 6.253819861967713e-08
0, 7, 81, 6.584913592178054e-08
0, 7, 82, 6.250679973618389e-08
0, 7, 83, 6.382150274930609e-08
0, 7, 84, 6.415043429797151e-08
0, 7, 85, 6.253841888792522e-08
0, 7, 86, 6.449156586540994e-08
0, 7, 87, 6.176242806077425e-08
0, 7, 88, 5.774253963863885e-08
0, 7, 89, 5.946732528627763e-08
0, 7, 90, 6.445071676353109e-08
0, 7, 91, 6.280193787233657e-08
0, 7, 92, 6.041099709364062e-08
0, 7, 93, 6.279167052980483e-08
0, 7, 94, 5.839255479145322e-08
0, 7, 95, 5.691324389545116e-08
0, 7, 96, 6.056957602140756e-08
0, 7, 97, 6.130820651151225e-08
0, 7, 98, 6.021913634413067e-08
0, 7, 99, 5.61076909377789e-08
0, 8, 0, 5.081596299305602e-08
0, 8, 1, 3.500002065948138e-08
0, 8, 2, 2.664273779373616e-08
0, 8, 3, 2.323940506698818e-08
0, 8, 4, 2.199147708381588e-08
0, 8, 5, 1.981688591001785e-08
0, 8, 6, 1.983310227160473e-08
0, 8, 7, 1.890737344467652e-08
0, 8, 8, 1.884838241039688e-08
0, 8, 9, 1.902544788379146e-08
0, 8, 10, 2.152265032862033e-08
0, 8, 11, 2.141951682688159e-08
0, 8, 12, 2.18442082200454e-08
0, 8, 13, 2.163152323930717e-08
0, 8, 14, 2.278516042508727e-08
0, 8, 15, 2.33686012762746e-08
0, 8, 16, 2.561157863567587e-08
0, 8, 17, 2.572197210781724e-08
0, 8, 18, 2.646140018214282e-08
0, 8, 19, 2.524933329084433e-08
0, 8, 20, 2.690097034019345e-08
0, 8, 21, 2.766401507869887e-08
0, 8, 22, 2.914730501402119e-08
0, 8, 23, 2.886467420637473e-08
0, 8, 24, 2.947366795069684e-08
0, 8, 25, 3.209084908917248e-08
0, 8, 26, 3.33764553772653e-08
0, 8, 27, 3.323852482139955e-08
0, 8, 28, 3.339395959756075e-08
0, 8, 29, 3.589787667124256e-08
0, 8, 30, 3.559210526304923e-08
0, 8, 31, 3.741572740523225e-08
0, 8, 32, 3.723861397020301e-08
0, 8, 33, 3.568833406575322e-08
0, 8, 34, 3.823202021635552e-08
0, 8, 35, 3.867768683107897e-08
0, 8, 36, 3.920621338693309e-08
0, 8, 37, 3.903358347656649e-08
0, 8, 38, 3.972811057906256e-08
0, 8, 39, 4.102293615915187e-08
0, 8, 40, 4.322492941355449e-08
0, 8, 41, 4.478305726252074e-08
0, 8, 42, 4.311052492766976e-08
0, 8, 43, 4.501284678326556e-08
0, 8, 44, 4.398075503786458e-08
0, 8, 45, 4.486259186364805e-08
0, 8, 46, 4.598369685027137e-08
0, 8, 47, 4.672070375022486e-08
0, 8, 48, 4.592363822553125e-08
0, 8, 49, 4.645402640335305e-08
0, 8, 50, 4.898861760693762e-08
0, 8, 51, 4.928503827272834e-08
0, 8, 52, 5.232295308132962e-08
0, 8, 53, 5.06613027084768e-08
0, 8, 54, 5.005346892517082e-08
0, 8, 55, 5.329082952698627e-08
0, 8, 56, 5.30241806018239e-08
0, 8, 57, 5.327799712517844e-08
0, 8, 58, 5.524007207213799e-08
0, 8, 59, 5.27671062400259e-08
0, 8, 60, 5.404626790550537e-08
0, 8, 61, 5.618438692067684e-08
0, 8, 62, 5.665091862283589e-08
0, 8, 63, 5.577445705284845e-08
0, 8, 64, 5.525742352574525e-08
0, 8, 65, 5.849236472954544e-08
0, 8, 66, 5.917192424931272e-08
0, 8, 67, 5.786102619254052e-08
0, 8, 68, 5.882018072611572e-08
0, 8, 69, 5.846911577123137e-08
0, 8, 70, 5.591293827933441e-08
0, 8, 71, 5.774264266733553e-08
0, 8, 72, 6.117076623013418e-08
0, 8, 73, 5.877663866726834e-08
0, 8, 74, 5.811021352997159e-08
0, 8, 75, 5.887592990916346e-08
0, 8, 76, 6.064038160502605e-08
0, 8, 77, 5.958219162494061e-08
0, 8, 78, 6.200825453106518e-08
0, 8, 79, 6.329209867317331e-08
0, 8, 80, 6.215993408886789e-08
0, 8, 81, 5.659825319526135e-08
0, 8, 82, 6.124659535089449e-08
0, 8, 83, 6.06815149239992e-08
0, 8, 84, 6.321451451185567e-08
0, 8, 85, 5.947597259137183e-08
0, 8, 86, 6.071939395724257e-08
0, 8, 87, 5.854861129250821e-08
0, 8, 88, 5.97962994675072e-08
0, 8, 89, 6.205856095675699e-08
0, 8, 90, 5.800763602792358e-08
0, 8, 91, 6.344652803136341e-08
0, 8, 92, 6.270417429732333e-08
0, 8, 93, 5.833496175000619e-08
0, 8, 94, 5.730802854486683e-08
0, 8, 95, 5.715992656973867e-08
0, 8, 96, 6.106267136374299e-08
0, 8, 97, 5.747310538595229e-08
0, 8, 98, 5.786789358808164e-08
0, 8, 99, 5.597976837634633e-08
0, 9, 0, 4.613120196950149e-08
0, 9, 1, 3.131823334001638e-08
0, 9, 2, 2.348791205974976e-08
0, 9, 3, 2.073758764709055e-08
0, 9, 4, 1.823435447079191e-08
0, 9, 5, 1.844821362340099e-08
0, 9, 6, 1.917325320732743e-08
0, 9, 7, 1.805516447461741e-08
0, 9, 8, 1.892245116152935e-08
0, 9, 9, 1.850184183638248e-08
0, 9, 10, 1.860579601498102e-08
0, 9, 11, 1.951802452992979e-08
0, 9, 12, 2.102808771553555e-08
0, 9, 13, 2.18641265092856e-08
0, 9, 14, 2.115415931314146e-08
0, 9, 15, 2.063600490487261e-08
0, 9, 16, 2.270418697492005e-08
0, 9, 17, 2.351115035992279e-08
0, 9, 18, 2.438633650569955e-08
0, 9, 19, 2.396821408012784e-08
0, 9, 20, 2.582678426676921e-08
0, 9, 21, 2.672881649345982e-08
0, 9, 22, 2.649160713019683e-08
0, 9, 23, 2.692354073019487e-08
0, 9, 24, 2.758518924395048e-08
0, 9, 25, 2.937565213301241e-08
0, 9, 26, 2.946074850740388e-08
0, 9, 27, 2.967920664787016e-08
0, 9, 28, 3.01801783564315e-08
0, 9, 29, 3.229601830412321e-08
0, 9, 30, 3.0639913717323e-08
0, 9, 31, 3.206042364922723e-08
0, 9, 32, 3.462347564209267e-08
0, 9, 33, 3.295458128604878e-08
0, 9, 34, 3.479183519061735e-08
0, 9, 35, 3.449956764711715e-08
