# TOPAS Version: 3.7
# Parameter File: Validacao_varian10MV
# Results for scorer DoseNaCaixa
# Scored in component: Phantom
# X in 15 bins of 2 cm
# Y in 15 bins of 2 cm
# Z in 100 bins of 0.3 cm
# DoseToMedium ( Gy ) : Sum   
0, 0, 0, 2.505579743683484e-08
0, 0, 1, 1.554085571342512e-08
0, 0, 2, 1.116002046330777e-08
0, 0, 3, 9.452223892481015e-09
0, 0, 4, 8.458244771247792e-09
0, 0, 5, 7.694164416705007e-09
0, 0, 6, 6.793073215050072e-09
0, 0, 7, 7.246662381277247e-09
0, 0, 8, 7.475467356243826e-09
0, 0, 9, 7.581238747889074e-09
0, 0, 10, 7.530641887854017e-09
0, 0, 11, 8.347925906093678e-09
0, 0, 12, 8.599789325103302e-09
0, 0, 13, 7.245501087993489e-09
0, 0, 14, 8.056524336552684e-09
0, 0, 15, 8.165715215113778e-09
0, 0, 16, 8.616429347796384e-09
0, 0, 17, 9.079604623707382e-09
0, 0, 18, 9.329425232351696e-09
0, 0, 19, 9.615898299841774e-09
0, 0, 20, 9.86704318250986e-09
0, 0, 21, 1.025685847366731e-08
0, 0, 22, 9.798799993632201e-09
0, 0, 23, 1.029416729636523e-08
0, 0, 24, 1.170619690071817e-08
0, 0, 25, 9.938436740242196e-09
0, 0, 26, 1.076978506375781e-08
0, 0, 27, 1.076068745220482e-08
0, 0, 28, 1.067357491280063e-08
0, 0, 29, 1.15308944614867e-08
0, 0, 30, 1.170679286843779e-08
0, 0, 31, 1.137186167454729e-08
0, 0, 32, 1.220196743645374e-08
0, 0, 33, 1.30944259879584e-08
0, 0, 34, 1.317797515554275e-08
0, 0, 35, 1.375452285401479e-08
0, 0, 36, 1.349396860916841e-08
0, 0, 37, 1.328345700102318e-08
0, 0, 38, 1.38857068066045e-08
0, 0, 39, 1.4812765236627e-08
0, 0, 40, 1.45492213832199e-08
0, 0, 41, 1.445840513980556e-08
0, 0, 42, 1.398232463145632e-08
0, 0, 43, 1.418909079120567e-08
0, 0, 44, 1.519414638551098e-08
0, 0, 45, 1.574442620722039e-08
0, 0, 46, 1.437592533903853e-08
0, 0, 47, 1.505823554737162e-08
0, 0, 48, 1.598940180258523e-08
0, 0, 49, 1.726757936637568e-08
0, 0, 50, 1.582855269077754e-08
0, 0, 51, 1.769730317846552e-08
0, 0, 52, 1.732500187756614e-08
0, 0, 53, 1.659521409180797e-08
0, 0, 54, 1.762110990455312e-08
0, 0, 55, 1.693486595399918e-08
0, 0, 56, 1.819666906044404e-08
0, 0, 57, 1.766579948991875e-08
0, 0, 58, 1.905099722421255e-08
0, 0, 59, 1.675043570514845e-08
0, 0, 60, 1.926850679012659e-08
0, 0, 61, 1.918534486833323e-08
0, 0, 62, 1.834828644575737e-08
0, 0, 63, 1.946661321028387e-08
0, 0, 64, 1.979060648693576e-08
0, 0, 65, 1.906027868869842e-08
0, 0, 66, 1.815802264104605e-08
0, 0, 67, 2.009740462938225e-08
0, 0, 68, 2.094159157195463e-08
0, 0, 69, 1.845556774071611e-08
0, 0, 70, 2.057777592767707e-08
0, 0, 71, 1.979926445017099e-08
0, 0, 72, 1.911973690482682e-08
0, 0, 73, 2.152761879870013e-08
0, 0, 74, 1.997508292106431e-08
0, 0, 75, 2.106940577562e-08
0, 0, 76, 2.16001136976729e-08
0, 0, 77, 2.308020974339797e-08
0, 0, 78, 2.196556891931323e-08
0, 0, 79, 2.048293268330781e-08
0, 0, 80, 2.389100650646014e-08
0, 0, 81, 2.204906834890608e-08
0, 0, 82, 2.148678923674652e-08
0, 0, 83, 2.045615765666753e-08
0, 0, 84, 2.00892102952821e-08
0, 0, 85, 2.112948394028535e-08
0, 0, 86, 2.170219737251955e-08
0, 0, 87, 2.220074968306562e-08
0, 0, 88, 2.221674222369074e-08
0, 0, 89, 2.227063511384131e-08
0, 0, 90, 2.242855146050715e-08
0, 0, 91, 2.120711606323766e-08
0, 0, 92, 2.039571711520693e-08
0, 0, 93, 2.077889149632028e-08
0, 0, 94, 2.152851408254719e-08
0, 0, 95, 2.001489818326263e-08
0, 0, 96, 1.958177087146851e-08
0, 0, 97, 2.09225596847773e-08
0, 0, 98, 2.172629187668917e-08
0, 0, 99, 2.016479250244174e-08
0, 1, 0, 2.884822514204188e-08
0, 1, 1, 2.191467984857809e-08
0, 1, 2, 1.467598753635002e-08
0, 1, 3, 1.203382815617715e-08
0, 1, 4, 1.135840665966725e-08
0, 1, 5, 9.454539373621174e-09
0, 1, 6, 9.323564142960095e-09
0, 1, 7, 8.59997317803618e-09
0, 1, 8, 9.694779201652182e-09
0, 1, 9, 1.003909222418997e-08
0, 1, 10, 1.079401812376091e-08
0, 1, 11, 9.615868989953924e-09
0, 1, 12, 1.111712855106362e-08
0, 1, 13, 9.351674101765184e-09
0, 1, 14, 1.075807354311564e-08
0, 1, 15, 1.105942626367096e-08
0, 1, 16, 1.086949286133176e-08
0, 1, 17, 1.135477400993068e-08
0, 1, 18, 1.158507600962366e-08
0, 1, 19, 1.263933668838035e-08
0, 1, 20, 1.306073915685602e-08
0, 1, 21, 1.303859420431763e-08
0, 1, 22, 1.39588252068279e-08
0, 1, 23, 1.31014230575488e-08
0, 1, 24, 1.418756934157273e-08
0, 1, 25, 1.390952153457192e-08
0, 1, 26, 1.36605615708163e-08
0, 1, 27, 1.559002349438288e-08
0, 1, 28, 1.536654536948845e-08
0, 1, 29, 1.52286823151826e-08
0, 1, 30, 1.65995750478487e-08
0, 1, 31, 1.621741674284749e-08
0, 1, 32, 1.613483036067009e-08
0, 1, 33, 1.630021984055929e-08
0, 1, 34, 1.580182384941509e-08
0, 1, 35, 1.767904045379964e-08
0, 1, 36, 1.646282044021063e-08
0, 1, 37, 1.662982640482369e-08
0, 1, 38, 1.819559081184252e-08
0, 1, 39, 1.838299112932873e-08
0, 1, 40, 1.796547088872558e-08
0, 1, 41, 2.058918013858602e-08
0, 1, 42, 1.934862403629722e-08
0, 1, 43, 1.950121308880171e-08
0, 1, 44, 1.993638498731798e-08
0, 1, 45, 2.015302946745123e-08
0, 1, 46, 2.133967136330739e-08
0, 1, 47, 2.128197174044999e-08
0, 1, 48, 2.142521005055187e-08
0, 1, 49, 2.144384403379718e-08
0, 1, 50, 2.060331283360028e-08
0, 1, 51, 2.40978810239767e-08
0, 1, 52, 2.316139813274276e-08
0, 1, 53, 2.238070173632423e-08
0, 1, 54, 2.173736213251232e-08
0, 1, 55, 2.415024802360222e-08
0, 1, 56, 2.237853458098016e-08
0, 1, 57, 2.256776987508147e-08
0, 1, 58, 2.394566855912217e-08
0, 1, 59, 2.440551938320823e-08
0, 1, 60, 2.202274629325984e-08
0, 1, 61, 2.285882771957404e-08
0, 1, 62, 2.516061847757101e-08
0, 1, 63, 2.547355038018395e-08
0, 1, 64, 2.661706410833631e-08
0, 1, 65, 2.509614382972813e-08
0, 1, 66, 2.539175270044325e-08
0, 1, 67, 2.496348550096172e-08
0, 1, 68, 2.564227585821754e-08
0, 1, 69, 2.455728065342555e-08
0, 1, 70, 2.54975152103043e-08
0, 1, 71, 2.579817781622751e-08
0, 1, 72, 2.566472545595389e-08
0, 1, 73, 2.61981618621121e-08
0, 1, 74, 2.568840784533677e-08
0, 1, 75, 2.761633233205885e-08
0, 1, 76, 2.890300088154163e-08
0, 1, 77, 2.740270943490941e-08
0, 1, 78, 2.734180881702741e-08
0, 1, 79, 2.830189949065698e-08
0, 1, 80, 2.877293248104706e-08
0, 1, 81, 2.625282924384464e-08
0, 1, 82, 2.786363317852647e-08
0, 1, 83, 2.670933696435895e-08
0, 1, 84, 2.720185143800791e-08
0, 1, 85, 2.73657079219447e-08
0, 1, 86, 2.490983952441184e-08
0, 1, 87, 2.395189113713059e-08
0, 1, 88, 2.790446451683692e-08
0, 1, 89, 2.683549915616368e-08
0, 1, 90, 2.888263317402107e-08
0, 1, 91, 2.685597344509461e-08
0, 1, 92, 2.660215336902638e-08
0, 1, 93, 2.788634034800452e-08
0, 1, 94, 2.523331232850978e-08
0, 1, 95, 2.485377414984669e-08
0, 1, 96, 2.570707557936203e-08
0, 1, 97, 2.687050226768406e-08
0, 1, 98, 2.841577817491725e-08
0, 1, 99, 2.824937261891591e-08
0, 2, 0, 3.182972108106696e-08
0, 2, 1, 2.149812239338189e-08
0, 2, 2, 1.632266588558196e-08
0, 2, 3, 1.475047106680449e-08
0, 2, 4, 1.327446685905898e-08
0, 2, 5, 1.184448006341654e-08
0, 2, 6, 1.167096197463025e-08
0, 2, 7, 1.269229876754707e-08
0, 2, 8, 1.271199501218234e-08
0, 2, 9, 1.155761797377863e-08
0, 2, 10, 1.23363186332881e-08
0, 2, 11, 1.23697443399351e-08
0, 2, 12, 1.263957383201841e-08
0, 2, 13, 1.255110237963208e-08
0, 2, 14, 1.334706389855e-08
0, 2, 15, 1.402929061811165e-08
0, 2, 16, 1.402379457005054e-08
0, 2, 17, 1.460380172346731e-08
0, 2, 18, 1.474294641923279e-08
0, 2, 19, 1.526419879382956e-08
0, 2, 20, 1.547766537157713e-08
0, 2, 21, 1.596203702547427e-08
0, 2, 22, 1.712702868417182e-08
0, 2, 23, 1.803176985504251e-08
0, 2, 24, 1.805382154884683e-08
0, 2, 25, 1.838373719920128e-08
0, 2, 26, 1.835984164699767e-08
0, 2, 27, 1.75240817412714e-08
0, 2, 28, 1.888185607867854e-08
0, 2, 29, 1.877316613274616e-08
0, 2, 30, 1.881497802003196e-08
0, 2, 31, 2.050688685528712e-08
0, 2, 32, 2.080747130150939e-08
0, 2, 33, 1.99714573767551e-08
0, 2, 34, 2.076767735559315e-08
0, 2, 35, 2.160216006075188e-08
0, 2, 36, 2.272627419586115e-08
0, 2, 37, 2.226783912817609e-08
0, 2, 38, 2.300078882910839e-08
0, 2, 39, 2.485065309087986e-08
0, 2, 40, 2.408366484019098e-08
0, 2, 41, 2.585580460845449e-08
0, 2, 42, 2.376514274260444e-08
0, 2, 43, 2.375380248054171e-08
0, 2, 44, 2.48377247658027e-08
0, 2, 45, 2.509365870650981e-08
0, 2, 46, 2.512690677747287e-08
0, 2, 47, 2.510903840402534e-08
0, 2, 48, 2.688643441217664e-08
0, 2, 49, 2.687163025427708e-08
0, 2, 50, 2.579508873168379e-08
0, 2, 51, 2.791471231944342e-08
0, 2, 52, 2.827635015023588e-08
0, 2, 53, 2.887324512812484e-08
0, 2, 54, 2.966291390293918e-08
0, 2, 55, 2.780174490624177e-08
0, 2, 56, 2.864696568849467e-08
0, 2, 57, 2.717673019958511e-08
0, 2, 58, 2.927498776728044e-08
0, 2, 59, 2.967413159637999e-08
0, 2, 60, 3.202425347126336e-08
0, 2, 61, 2.947027866184726e-08
0, 2, 62, 3.059867736965316e-08
0, 2, 63, 3.204994669658845e-08
0, 2, 64, 3.068107901071926e-08
0, 2, 65, 3.280609917055699e-08
0, 2, 66, 3.125318670527122e-08
0, 2, 67, 3.21385407175967e-08
0, 2, 68, 3.116987556950335e-08
0, 2, 69, 3.219752642280582e-08
0, 2, 70, 3.562824346658999e-08
0, 2, 71, 3.176788965220112e-08
0, 2, 72, 3.469136444778087e-08
0, 2, 73, 3.472339571430894e-08
0, 2, 74, 3.501852319232057e-08
0, 2, 75, 3.439800622118128e-08
0, 2, 76, 3.473201459769371e-08
0, 2, 77, 3.394692882352501e-08
0, 2, 78, 3.195125586330505e-08
0, 2, 79, 3.250806202004242e-08
0, 2, 80, 3.32097087607508e-08
0, 2, 81, 3.379775392886586e-08
0, 2, 82, 3.397087411372013e-08
0, 2, 83, 3.577006069122035e-08
0, 2, 84, 3.376426960244316e-08
0, 2, 85, 3.591042840866976e-08
0, 2, 86, 3.453115482443536e-08
0, 2, 87, 3.364148781770382e-08
0, 2, 88, 3.649841673336596e-08
0, 2, 89, 3.594380615368209e-08
0, 2, 90, 3.427690131729833e-08
0, 2, 91, 3.460182185222038e-08
0, 2, 92, 3.445121876666235e-08
0, 2, 93, 3.717150676152414e-08
0, 2, 94, 3.496447575912498e-08
0, 2, 95, 3.548511884332584e-08
0, 2, 96, 3.540774073940156e-08
0, 2, 97, 3.400320025548353e-08
0, 2, 98, 3.362963951758502e-08
0, 2, 99, 3.211088639432091e-08
0, 3, 0, 3.864188968805138e-08
0, 3, 1, 2.72226081676763e-08
0, 3, 2, 2.270818733052238e-08
0, 3, 3, 1.841400631974466e-08
0, 3, 4, 1.688783513031922e-08
0, 3, 5, 1.48318406445469e-08
0, 3, 6, 1.470278565562921e-08
0, 3, 7, 1.57262078914755e-08
0, 3, 8, 1.477353084311517e-08
0, 3, 9, 1.379051184358104e-08
0, 3, 10, 1.460631082750297e-08
0, 3, 11, 1.514137792923975e-08
0, 3, 12, 1.455909881542539e-08
0, 3, 13, 1.534315252627039e-08
0, 3, 14, 1.621536860341166e-08
0, 3, 15, 1.707272900830503e-08
0, 3, 16, 1.783143410705179e-08
0, 3, 17, 1.700200868981483e-08
0, 3, 18, 1.803817184509171e-08
0, 3, 19, 1.816235872809102e-08
0, 3, 20, 1.896913914833931e-08
0, 3, 21, 2.01694660972862e-08
0, 3, 22, 1.94675884301887e-08
0, 3, 23, 2.019024059052299e-08
0, 3, 24, 1.957145734365895e-08
0, 3, 25, 2.158659562212506e-08
0, 3, 26, 2.313661617847629e-08
0, 3, 27, 2.373189289528455e-08
0, 3, 28, 2.457539949318743e-08
0, 3, 29, 2.339294624675858e-08
0, 3, 30, 2.438883406341574e-08
0, 3, 31, 2.550198985318275e-08
0, 3, 32, 2.563717593773163e-08
0, 3, 33, 2.480028804541234e-08
0, 3, 34, 2.636804374844814e-08
0, 3, 35, 2.594062564753585e-08
0, 3, 36, 2.638735807636294e-08
0, 3, 37, 2.822799061164005e-08
0, 3, 38, 2.860169523444256e-08
0, 3, 39, 2.701989920694814e-08
0, 3, 40, 3.002411119723547e-08
0, 3, 41, 2.962751111112993e-08
0, 3, 42, 3.087351529984517e-08
0, 3, 43, 3.065305875793456e-08
0, 3, 44, 3.195036057945799e-08
0, 3, 45, 3.170898921212029e-08
0, 3, 46, 3.083319555230446e-08
0, 3, 47, 3.209547472238228e-08
0, 3, 48, 3.367595624581554e-08
0, 3, 49, 3.34323786432833e-08
0, 3, 50, 3.259263436916626e-08
0, 3, 51, 3.613936527813166e-08
0, 3, 52, 3.287688343789341e-08
0, 3, 53, 3.320231556358522e-08
0, 3, 54, 3.564799300193044e-08
0, 3, 55, 3.711361884484177e-08
0, 3, 56, 3.732992581717554e-08
0, 3, 57, 3.461368791590758e-08
0, 3, 58, 3.604842291338173e-08
0, 3, 59, 3.554514194092917e-08
0, 3, 60, 3.795890535229773e-08
0, 3, 61, 3.737437737072469e-08
0, 3, 62, 3.892306565944637e-08
0, 3, 63, 3.819479132971537e-08
0, 3, 64, 3.930948722086214e-08
0, 3, 65, 4.03450002295358e-08
0, 3, 66, 4.059941716150206e-08
0, 3, 67, 4.034259859508893e-08
0, 3, 68, 3.791774716432883e-08
0, 3, 69, 3.832341022302899e-08
0, 3, 70, 3.73126205488461e-08
0, 3, 71, 4.065169889599929e-08
0, 3, 72, 4.280586196614422e-08
0, 3, 73, 4.110673046398006e-08
0, 3, 74, 4.07240605682091e-08
0, 3, 75, 4.233448436252729e-08
0, 3, 76, 4.289421795533599e-08
0, 3, 77, 4.075825188465387e-08
0, 3, 78, 4.283367971424923e-08
0, 3, 79, 3.885717703155933e-08
0, 3, 80, 4.387287333429413e-08
0, 3, 81, 4.210667725601525e-08
0, 3, 82, 4.063953440436308e-08
0, 3, 83, 4.30441033927309e-08
0, 3, 84, 4.33217088868787e-08
0, 3, 85, 4.325221425460768e-08
0, 3, 86, 4.114798457521829e-08
0, 3, 87, 4.445788803764117e-08
0, 3, 88, 4.009269360949475e-08
0, 3, 89, 4.289886135211418e-08
0, 3, 90, 4.255911179029681e-08
0, 3, 91, 4.372791195805803e-08
0, 3, 92, 4.395272057422517e-08
0, 3, 93, 4.276753173826364e-08
0, 3, 94, 4.345425352880739e-08
0, 3, 95, 4.390124175301935e-08
0, 3, 96, 4.218021132373906e-08
0, 3, 97, 4.283912247160515e-08
0, 3, 98, 4.188228430734853e-08
0, 3, 99, 4.39219469683394e-08
0, 4, 0, 4.069283576768612e-08
0, 4, 1, 2.839308521629391e-08
0, 4, 2, 2.230715878681622e-08
0, 4, 3, 2.041951674414122e-08
0, 4, 4, 1.843239161303245e-08
0, 4, 5, 1.800436599808108e-08
0, 4, 6, 1.609842215088975e-08
0, 4, 7, 1.616476907884135e-08
0, 4, 8, 1.67833409392415e-08
0, 4, 9, 1.657219428352619e-08
0, 4, 10, 1.82457693398419e-08
0, 4, 11, 1.745944722131298e-08
0, 4, 12, 1.669737237364188e-08
0, 4, 13, 1.824253459403735e-08
0, 4, 14, 1.880315991797943e-08
0, 4, 15, 1.871659627283861e-08
0, 4, 16, 2.009850774697952e-08
0, 4, 17, 2.121508480001921e-08
0, 4, 18, 2.159635315024389e-08
0, 4, 19, 2.211289285014573e-08
0, 4, 20, 2.184214054068434e-08
0, 4, 21, 2.161784884435747e-08
0, 4, 22, 2.383698571861714e-08
0, 4, 23, 2.40857982447551e-08
0, 4, 24, 2.389364439636665e-08
0, 4, 25, 2.521794151277845e-08
0, 4, 26, 2.633642459670682e-08
0, 4, 27, 2.723335335019783e-08
0, 4, 28, 2.976228330453523e-08
0, 4, 29, 2.779683327958082e-08
0, 4, 30, 2.837146517720157e-08
0, 4, 31, 2.82865038059299e-08
0, 4, 32, 3.078831412040017e-08
0, 4, 33, 2.998221404482138e-08
0, 4, 34, 3.204222664976442e-08
0, 4, 35, 3.080146626643909e-08
0, 4, 36, 3.226332268013721e-08
0, 4, 37, 3.156246108915184e-08
0, 4, 38, 3.417888905232758e-08
0, 4, 39, 3.4715508689942e-08
0, 4, 40, 3.468149500918116e-08
0, 4, 41, 3.461066455656692e-08
0, 4, 42, 3.511058821459301e-08
0, 4, 43, 3.557170202839188e-08
0, 4, 44, 3.764361267144523e-08
0, 4, 45, 3.69343808870326e-08
0, 4, 46, 3.874173515328039e-08
0, 4, 47, 4.175110746018618e-08
0, 4, 48, 3.828186123655541e-08
0, 4, 49, 3.782912116889747e-08
0, 4, 50, 3.867164366511133e-08
0, 4, 51, 4.08307450072698e-08
0, 4, 52, 4.094477645821826e-08
0, 4, 53, 4.255151253573786e-08
0, 4, 54, 4.062924219283559e-08
0, 4, 55, 4.377564621904639e-08
0, 4, 56, 4.558209809601976e-08
0, 4, 57, 4.257959673736877e-08
0, 4, 58, 4.288407851049669e-08
0, 4, 59, 4.451748480960305e-08
0, 4, 60, 4.26574189305029e-08
0, 4, 61, 4.583509749522818e-08
0, 4, 62, 4.646789975026877e-08
0, 4, 63, 4.527817054622574e-08
0, 4, 64, 4.705589873310601e-08
0, 4, 65, 4.623418803362256e-08
0, 4, 66, 4.790803842524838e-08
0, 4, 67, 4.697135835840527e-08
0, 4, 68, 4.783774443239963e-08
0, 4, 69, 4.822490495826059e-08
0, 4, 70, 4.728494928940563e-08
0, 4, 71, 4.992157087713167e-08
0, 4, 72, 4.949234266860003e-08
0, 4, 73, 5.074087638945457e-08
0, 4, 74, 5.089969690175167e-08
0, 4, 75, 4.777231765729084e-08
0, 4, 76, 4.919669294167761e-08
0, 4, 77, 5.104005396106004e-08
0, 4, 78, 5.134463876288464e-08
0, 4, 79, 5.337891906265213e-08
0, 4, 80, 4.806070563745379e-08
0, 4, 81, 4.921013641023819e-08
0, 4, 82, 5.063962404960876e-08
0, 4, 83, 5.104660161237007e-08
0, 4, 84, 5.123458990397012e-08
0, 4, 85, 5.179031958846281e-08
0, 4, 86, 5.123855117972198e-08
0, 4, 87, 4.826312505201713e-08
0, 4, 88, 5.090594967782636e-08
0, 4, 89, 4.961200161801571e-08
0, 4, 90, 4.953902177362579e-08
0, 4, 91, 5.101690803144265e-08
0, 4, 92, 5.120715229622874e-08
0, 4, 93, 5.265431113343766e-08
0, 4, 94, 5.041008677153513e-08
0, 4, 95, 4.83367159631598e-08
0, 4, 96, 5.17543732314607e-08
0, 4, 97, 5.137384917475174e-08
0, 4, 98, 4.819127852329075e-08
0, 4, 99, 4.515913687441753e-08
0, 5, 0, 4.426854971484318e-08
0, 5, 1, 3.221781597062545e-08
0, 5, 2, 2.721152725371212e-08
0, 5, 3, 2.303073287635016e-08
0, 5, 4, 2.077213068218953e-08
0, 5, 5, 1.877959654450478e-08
0, 5, 6, 1.865469023698552e-08
0, 5, 7, 1.784921010994367e-08
0, 5, 8, 1.800133020424255e-08
0, 5, 9, 1.895049450695296e-08
0, 5, 10, 1.84958057758422e-08
0, 5, 11, 1.921584846797941e-08
0, 5, 12, 1.91248350489559e-08
0, 5, 13, 2.00765324365193e-08
0, 5, 14, 2.237916874037182e-08
0, 5, 15, 2.166848744877825e-08
0, 5, 16, 2.201311843919029e-08
0, 5, 17, 2.263345599828881e-08
0, 5, 18, 2.381849206756215e-08
0, 5, 19, 2.480599725629418e-08
0, 5, 20, 2.36624284610798e-08
0, 5, 21, 2.520727981902837e-08
0, 5, 22, 2.581165858828172e-08
0, 5, 23, 2.570314094896275e-08
0, 5, 24, 2.861563253020449e-08
0, 5, 25, 2.896357287340834e-08
0, 5, 26, 2.874213400616554e-08
0, 5, 27, 3.10203809306131e-08
0, 5, 28, 3.122064029525973e-08
0, 5, 29, 3.213109067701225e-08
0, 5, 30, 3.189311925666516e-08
0, 5, 31, 3.506540480202602e-08
0, 5, 32, 3.331071951606646e-08
0, 5, 33, 3.47820225954365e-08
0, 5, 34, 3.57638683112782e-08
0, 5, 35, 3.478309906768118e-08
0, 5, 36, 3.679379645404879e-08
0, 5, 37, 3.682049509734497e-08
0, 5, 38, 3.818481886241898e-08
0, 5, 39, 3.721519803434603e-08
0, 5, 40, 4.094641425922418e-08
0, 5, 41, 3.93814545418536e-08
0, 5, 42, 4.041703505208716e-08
0, 5, 43, 4.071300807595435e-08
0, 5, 44, 4.247306151228258e-08
0, 5, 45, 4.283132781779386e-08
0, 5, 46, 4.456315849665771e-08
0, 5, 47, 4.346285109591008e-08
0, 5, 48, 4.527118946384689e-08
0, 5, 49, 4.420072485800119e-08
0, 5, 50, 4.468317982286862e-08
0, 5, 51, 4.561770694522238e-08
0, 5, 52, 4.720419966020017e-08
0, 5, 53, 4.737506031915473e-08
0, 5, 54, 4.861120572741129e-08
0, 5, 55, 4.817656318323316e-08
0, 5, 56, 5.16993061694393e-08
0, 5, 57, 4.810588905002078e-08
0, 5, 58, 4.973433931354521e-08
0, 5, 59, 5.12408604436132e-08
0, 5, 60, 5.086474530457963e-08
0, 5, 61, 5.165128413864295e-08
0, 5, 62, 5.487862608788419e-08
0, 5, 63, 5.045058415475978e-08
0, 5, 64, 5.529854973929105e-08
0, 5, 65, 5.418105786247907e-08
0, 5, 66, 5.458404572777908e-08
0, 5, 67, 5.323952123603704e-08
0, 5, 68, 5.427015992154338e-08
0, 5, 69, 5.487793330871682e-08
0, 5, 70, 5.71577096764031e-08
0, 5, 71, 5.407334313645151e-08
0, 5, 72, 5.657415869109172e-08
0, 5, 73, 5.431381566722848e-08
0, 5, 74, 5.703716965399508e-08
0, 5, 75, 5.530353064386873e-08
0, 5, 76, 5.578573336606496e-08
0, 5, 77, 5.701839356220262e-08
0, 5, 78, 5.894132470984914e-08
0, 5, 79, 6.062619917202028e-08
0, 5, 80, 5.955616444452971e-08
0, 5, 81, 5.741348019228099e-08
0, 5, 82, 5.809334524542464e-08
0, 5, 83, 6.146330377987397e-08
0, 5, 84, 5.829911486898709e-08
0, 5, 85, 5.656712787072138e-08
0, 5, 86, 6.075646297176718e-08
0, 5, 87, 5.865255658932256e-08
0, 5, 88, 5.644850986641359e-08
0, 5, 89, 6.127702079083974e-08
0, 5, 90, 6.023115162179238e-08
0, 5, 91, 5.926372992348661e-08
0, 5, 92, 5.893932808476166e-08
0, 5, 93, 5.984355055943524e-08
0, 5, 94, 6.004990638075469e-08
0, 5, 95, 5.938852964959551e-08
0, 5, 96, 5.714690232139219e-08
0, 5, 97, 5.771687128230951e-08
0, 5, 98, 5.797637214755014e-08
0, 5, 99, 5.77212801999849e-08
0, 6, 0, 5.096831046103034e-08
0, 6, 1, 3.741626031228407e-08
0, 6, 2, 3.027069439553998e-08
0, 6, 3, 2.381208652479927e-08
0, 6, 4, 2.349911198962218e-08
0, 6, 5, 1.948881411806269e-08
0, 6, 6, 2.032591694955954e-08
0, 6, 7, 2.122110487334794e-08
0, 6, 8, 1.886323630628794e-08
0, 6, 9, 2.127636555826484e-08
0, 6, 10, 2.097415219282084e-08
0, 6, 11, 2.02446539532275e-08
0, 6, 12, 2.228666140524638e-08
0, 6, 13, 2.107719865307445e-08
0, 6, 14, 2.230813933579157e-08
0, 6, 15, 2.377533370179208e-08
0, 6, 16, 2.478977734199361e-08
0, 6, 17, 2.455181480343072e-08
0, 6, 18, 2.4327665215651e-08
0, 6, 19, 2.529711196075368e-08
0, 6, 20, 2.744506133467439e-08
0, 6, 21, 2.651051822510908e-08
0, 6, 22, 2.917909647237593e-08
0, 6, 23, 3.055852459965536e-08
0, 6, 24, 3.058573838643497e-08
0, 6, 25, 3.101945367234293e-08
0, 6, 26, 3.305081364146645e-08
0, 6, 27, 3.172391771499861e-08
0, 6, 28, 3.462155007127876e-08
0, 6, 29, 3.371307144561797e-08
0, 6, 30, 3.553836336323002e-08
0, 6, 31, 3.638175627429518e-08
0, 6, 32, 3.722377073245298e-08
0, 6, 33, 3.788381164326893e-08
0, 6, 34, 3.941669390883362e-08
0, 6, 35, 3.808391113580001e-08
0, 6, 36, 4.109153195486215e-08
0, 6, 37, 3.968881756577503e-08
0, 6, 38, 4.168635570067636e-08
0, 6, 39, 4.213209692238706e-08
0, 6, 40, 4.243908335865854e-08
0, 6, 41, 4.190068736420471e-08
0, 6, 42, 4.179602086651357e-08
0, 6, 43, 4.454275881471403e-08
0, 6, 44, 4.305270806526096e-08
0, 6, 45, 4.63711984366455e-08
0, 6, 46, 4.890501514864809e-08
0, 6, 47, 4.791524332858899e-08
0, 6, 48, 5.090213406333532e-08
0, 6, 49, 4.884225646151208e-08
0, 6, 50, 5.25809014106926e-08
0, 6, 51, 5.296060479054177e-08
0, 6, 52, 4.941810871628149e-08
0, 6, 53, 4.983179380246838e-08
0, 6, 54, 5.258369384364414e-08
0, 6, 55, 5.249374268601059e-08
0, 6, 56, 5.391511948005245e-08
0, 6, 57, 5.274232606211626e-08
0, 6, 58, 5.652412582435318e-08
0, 6, 59, 5.435028427314137e-08
0, 6, 60, 5.736902508601815e-08
0, 6, 61, 5.9439326349775e-08
0, 6, 62, 5.675895309309453e-08
0, 6, 63, 5.856116302993541e-08
0, 6, 64, 5.891427790061243e-08
0, 6, 65, 5.873484809626461e-08
0, 6, 66, 5.945587844280453e-08
0, 6, 67, 5.931056890062791e-08
0, 6, 68, 5.904517053068048e-08
0, 6, 69, 5.824106708018917e-08
0, 6, 70, 5.603592256875345e-08
0, 6, 71, 5.890217025239508e-08
0, 6, 72, 6.158656162824627e-08
0, 6, 73, 5.931520163926507e-08
0, 6, 74, 6.034063915194565e-08
0, 6, 75, 6.188002998896991e-08
0, 6, 76, 6.378814276786215e-08
0, 6, 77, 6.640881622388406e-08
0, 6, 78, 6.181137734984077e-08
0, 6, 79, 5.981174666658262e-08
0, 6, 80, 6.461308288407963e-08
0, 6, 81, 6.546721209588213e-08
0, 6, 82, 6.430175858440634e-08
0, 6, 83, 6.399599783435406e-08
0, 6, 84, 6.234890292944328e-08
0, 6, 85, 6.302214217157598e-08
0, 6, 86, 6.321334211634166e-08
0, 6, 87, 6.520714634916658e-08
0, 6, 88, 6.362851934227365e-08
0, 6, 89, 6.539463015542424e-08
0, 6, 90, 6.530502361101753e-08
0, 6, 91, 6.092422211168014e-08
0, 6, 92, 6.155026710530365e-08
0, 6, 93, 6.544250652495975e-08
0, 6, 94, 6.418952125386568e-08
0, 6, 95, 6.334443014566205e-08
0, 6, 96, 6.459890045107386e-08
0, 6, 97, 6.556389564593701e-08
0, 6, 98, 6.23088638462832e-08
0, 6, 99, 6.342961711425232e-08
0, 7, 0, 4.907209927296208e-08
0, 7, 1, 3.766835376950439e-08
0, 7, 2, 2.988751646171295e-08
0, 7, 3, 2.506305207816695e-08
0, 7, 4, 2.280517641395363e-08
0, 7, 5, 2.083000438801719e-08
0, 7, 6, 1.986879638593564e-08
0, 7, 7, 1.943013039351627e-08
0, 7, 8, 1.972492036372842e-08
0, 7, 9, 2.031504031663189e-08
0, 7, 10, 2.02577421504202e-08
0, 7, 11, 2.171885782331628e-08
0, 7, 12, 2.32294059543392e-08
0, 7, 13, 2.298789780752486e-08
0, 7, 14, 2.308246749294085e-08
0, 7, 15, 2.519550257318315e-08
0, 7, 16, 2.42368329850251e-08
0, 7, 17, 2.614735628014841e-08
0, 7, 18, 2.638223683959495e-08
0, 7, 19, 2.695309575528881e-08
0, 7, 20, 2.83090013653009e-08
0, 7, 21, 2.850860525427379e-08
0, 7, 22, 2.86355064105237e-08
0, 7, 23, 3.091416900247168e-08
0, 7, 24, 3.044281271513682e-08
0, 7, 25, 3.10758174748571e-08
0, 7, 26, 3.359829037208328e-08
0, 7, 27, 3.419850358454823e-08
0, 7, 28, 3.439535944949057e-08
0, 7, 29, 3.617683574930197e-08
0, 7, 30, 3.685666527530884e-08
0, 7, 31, 3.672045778557731e-08
0, 7, 32, 3.92905228352447e-08
0, 7, 33, 3.825941874424643e-08
0, 7, 34, 3.895392097774675e-08
0, 7, 35, 4.013292809190716e-08
0, 7, 36, 3.992598252011703e-08
0, 7, 37, 4.263912600777076e-08
0, 7, 38, 4.335873526883915e-08
0, 7, 39, 4.267815967295974e-08
0, 7, 40, 4.016944998852523e-08
0, 7, 41, 4.461241687181428e-08
0, 7, 42, 4.441920609110639e-08
0, 7, 43, 4.693094979302259e-08
0, 7, 44, 4.600521208431019e-08
0, 7, 45, 4.669248809818782e-08
0, 7, 46, 4.798145525342079e-08
0, 7, 47, 5.012257986436452e-08
0, 7, 48, 4.928720898078609e-08
0, 7, 49, 5.114478796031108e-08
0, 7, 50, 5.112574896770639e-08
0, 7, 51, 5.185876617019858e-08
0, 7, 52, 4.8793435070138e-08
0, 7, 53, 5.248334744578642e-08
0, 7, 54, 5.508438860601927e-08
0, 7, 55, 5.192170249301853e-08
0, 7, 56, 5.384545431752485e-08
0, 7, 57, 5.756667320611086e-08
0, 7, 58, 5.462931795818804e-08
0, 7, 59, 5.657130586200765e-08
0, 7, 60, 5.529893698508204e-08
0, 7, 61, 5.7262987240847e-08
0, 7, 62, 5.944042769101543e-08
0, 7, 63, 5.956936988127381e-08
0, 7, 64, 5.890487031479097e-08
0, 7, 65, 5.561649629726162e-08
0, 7, 66, 6.151763898287754e-08
0, 7, 67, 5.757529919492299e-08
0, 7, 68, 6.254532536331681e-08
0, 7, 69, 6.348898295982508e-08
0, 7, 70, 6.316719236565405e-08
0, 7, 71, 6.33415382367275e-08
0, 7, 72, 6.357937110124112e-08
0, 7, 73, 6.395969620598407e-08
0, 7, 74, 6.782924089066e-08
0, 7, 75, 6.379747929941004e-08
0, 7, 76, 6.392253482090382e-08
0, 7, 77, 6.847245970220683e-08
0, 7, 78, 6.273031516457195e-08
0, 7, 79, 6.403222130302311e-08
0, 7, 80, 6.665664642468982e-08
0, 7, 81, 6.759785975418708e-08
0, 7, 82, 6.525145579416858e-08
0, 7, 83, 6.582238398777918e-08
0, 7, 84, 6.072649227917282e-08
0, 7, 85, 6.635021065903857e-08
0, 7, 86, 6.373383598656801e-08
0, 7, 87, 6.611216463170422e-08
0, 7, 88, 7.00234963346702e-08
0, 7, 89, 6.656034656771226e-08
0, 7, 90, 6.809948160935164e-08
0, 7, 91, 6.491264059604873e-08
0, 7, 92, 6.410144948176821e-08
0, 7, 93, 6.340921032688129e-08
0, 7, 94, 6.171534749910279e-08
0, 7, 95, 6.550406794758601e-08
0, 7, 96, 6.274103014902721e-08
0, 7, 97, 6.306751032525426e-08
0, 7, 98, 6.394263607489847e-08
0, 7, 99, 6.375118744017527e-08
0, 8, 0, 4.991096602680045e-08
0, 8, 1, 3.624027300475063e-08
0, 8, 2, 2.751604277761999e-08
0, 8, 3, 2.312501834467184e-08
0, 8, 4, 2.005402777172094e-08
0, 8, 5, 1.913742408987673e-08
0, 8, 6, 1.869921462116508e-08
0, 8, 7, 1.878351341133566e-08
0, 8, 8, 1.84972392958116e-08
0, 8, 9, 2.073646676592489e-08
0, 8, 10, 1.939142180162889e-08
0, 8, 11, 2.077472238681821e-08
0, 8, 12, 2.215496586188692e-08
0, 8, 13, 2.226527584525684e-08
0, 8, 14, 2.394091680457677e-08
0, 8, 15, 2.330570403330512e-08
0, 8, 16, 2.433140622315477e-08
0, 8, 17, 2.51396716777208e-08
0, 8, 18, 2.629513318197496e-08
0, 8, 19, 2.726822145859842e-08
0, 8, 20, 2.640262231068391e-08
0, 8, 21, 2.664265075225103e-08
0, 8, 22, 2.75892748646811e-08
0, 8, 23, 2.923957076461647e-08
0, 8, 24, 2.874640969707798e-08
0, 8, 25, 3.146105598261784e-08
0, 8, 26, 3.246396218514747e-08
0, 8, 27, 3.159957628895427e-08
0, 8, 28, 3.39320500586382e-08
0, 8, 29, 3.33068577162976e-08
0, 8, 30, 3.572420581576807e-08
0, 8, 31, 3.660643699276989e-08
0, 8, 32, 3.698940176377619e-08
0, 8, 33, 3.712351315243723e-08
0, 8, 34, 3.822789196306076e-08
0, 8, 35, 3.826649930260828e-08
0, 8, 36, 4.017845611770099e-08
0, 8, 37, 3.830957950867742e-08
0, 8, 38, 4.130528807877454e-08
0, 8, 39, 4.130400199642281e-08
0, 8, 40, 4.256996177787187e-08
0, 8, 41, 4.092473915306982e-08
0, 8, 42, 4.499391792478491e-08
0, 8, 43, 4.546928522586313e-08
0, 8, 44, 4.691808896950533e-08
0, 8, 45, 4.699518996176266e-08
0, 8, 46, 4.625596972118728e-08
0, 8, 47, 4.731574776428715e-08
0, 8, 48, 4.753124827061583e-08
0, 8, 49, 4.714202717082117e-08
0, 8, 50, 5.095041188951654e-08
0, 8, 51, 5.063962049689508e-08
0, 8, 52, 5.200724118026301e-08
0, 8, 53, 5.047379403322338e-08
0, 8, 54, 5.143044745636871e-08
0, 8, 55, 5.200286778972441e-08
0, 8, 56, 5.443261130722021e-08
0, 8, 57, 5.196579166977244e-08
0, 8, 58, 5.323893859099371e-08
0, 8, 59, 5.269304281796394e-08
0, 8, 60, 5.573201278252782e-08
0, 8, 61, 5.573839700900862e-08
0, 8, 62, 5.54075221259609e-08
0, 8, 63, 5.535820335467179e-08
0, 8, 64, 6.058417056920007e-08
0, 8, 65, 5.622361598511816e-08
0, 8, 66, 5.906899858132419e-08
0, 8, 67, 6.202311197966992e-08
0, 8, 68, 6.287672249527532e-08
0, 8, 69, 6.091153892384682e-08
0, 8, 70, 6.053927137372739e-08
0, 8, 71, 6.111626049687402e-08
0, 8, 72, 6.228545856856726e-08
0, 8, 73, 6.494973092685541e-08
0, 8, 74, 6.447101696949176e-08
0, 8, 75, 6.131789120900066e-08
0, 8, 76, 6.332652446872089e-08
0, 8, 77, 6.406746422271681e-08
0, 8, 78, 6.457359802425344e-08
0, 8, 79, 6.461303314608813e-08
0, 8, 80, 6.534904173349787e-08
0, 8, 81, 6.333126378876841e-08
0, 8, 82, 6.194641599677198e-08
0, 8, 83, 6.143294228877494e-08
0, 8, 84, 6.175350364401311e-08
0, 8, 85, 6.277288377987134e-08
0, 8, 86, 6.520233597484548e-08
0, 8, 87, 6.268231800277135e-08
0, 8, 88, 6.613713310343883e-08
0, 8, 89, 6.610748215507556e-08
0, 8, 90, 6.487060488780116e-08
0, 8, 91, 6.723789880425102e-08
0, 8, 92, 6.378360239978065e-08
0, 8, 93, 6.067948277177493e-08
0, 8, 94, 6.504187410882878e-08
0, 8, 95, 6.409246111616085e-08
0, 8, 96, 6.259006113396026e-08
0, 8, 97, 6.333645075073946e-08
0, 8, 98, 6.142563790945132e-08
0, 8, 99, 5.912400524721306e-08
0, 9, 0, 4.635884209847063e-08
0, 9, 1, 3.343527055221784e-08
0, 9, 2, 2.802686616121264e-08
0, 9, 3, 2.207978333501615e-08
0, 9, 4, 1.968228779958281e-08
0, 9, 5, 1.921335801569057e-08
0, 9, 6, 1.818104600204151e-08
0, 9, 7, 1.946005134811912e-08
0, 9, 8, 1.776115077234408e-08
0, 9, 9, 1.841877406150161e-08
0, 9, 10, 1.962431817048582e-08
0, 9, 11, 1.830423634885392e-08
0, 9, 12, 1.982156305757599e-08
0, 9, 13, 2.03435881473979e-08
0, 9, 14, 2.049360503519893e-08
0, 9, 15, 2.239785246160864e-08
0, 9, 16, 2.246869001965024e-08
0, 9, 17, 2.22796519011581e-08
0, 9, 18, 2.429657719460465e-08
0, 9, 19, 2.496912721028366e-08
0, 9, 20, 2.448719271797017e-08
0, 9, 21, 2.548824618031631e-08
0, 9, 22, 2.620003769493451e-08
0, 9, 23, 2.692856604369354e-08
0, 9, 24, 2.900737960942479e-08
0, 9, 25, 2.988300096262719e-08
0, 9, 26, 2.987323455272417e-08
0, 9, 27, 3.06990877163571e-08
0, 9, 28, 3.024701911158445e-08
0, 9, 29, 3.144071314409302e-08
0, 9, 30, 3.170223905613057e-08
0, 9, 31, 3.380619872928037e-08
0, 9, 32, 3.637605416884071e-08
0, 9, 33, 3.476791832213166e-08
0, 9, 34, 3.605758536195935e-08
0, 9, 35, 3.607774701208655e-08
